Database of Origin,University of Winnipeg Spectrophotometer Facility
Sample Description,16.11. Meteorites - HEDs 16.11.3. NASA samples (4) Bruker Vertex 70 FTIR spectrometer
Other Information,MIR Glowbar KBr Beam Splitter MCT cryo cooled Dectect.
Date Added,2018-07-23 23:49:05.426880

Data ID,FTIR_MET2_6_14      
Sample ID,NWA 6013
Mineral Name,Olivine-rich diogenite
Grain Size,45-90 um
Viewing Geometry,i30/ e0
Resolution,7.71cm-1

Wavelength
1672.316177,0.32499
1674.476792,0.32496
1676.642997,0.32383
1678.814814,0.32182
1680.992268,0.3199
1683.175374,0.31841
1685.364158,0.31779
1687.558643,0.31825
1689.758849,0.31852
1691.9648,0.31741
1694.176519,0.3161
1696.394027,0.3155
1698.61735,0.31474
1700.846507,0.31404
1703.081521,0.31375
1705.322418,0.31276
1707.569219,0.31159
1709.821949,0.31125
1712.08063,0.31035
1714.345286,0.30946
1716.615945,0.30959
1718.892624,0.3088
1721.175349,0.30714
1723.464146,0.30613
1725.759038,0.30568
1728.060049,0.3054
1730.367205,0.305
1732.68053,0.30408
1735.000051,0.30339
1737.325788,0.30289
1739.657769,0.30194
1741.996018,0.3014
1744.340562,0.30129
1746.691425,0.30087
1749.048633,0.29975
1751.412211,0.29846
1753.78219,0.29771
1756.158588,0.2975
1758.541435,0.29739
1760.930758,0.29683
1763.326581,0.296
1765.728933,0.2948
1768.13784,0.29383
1770.553328,0.29384
1772.975429,0.29379
1775.404162,0.29323
1777.839558,0.29261
1780.281645,0.29203
1782.73045,0.29169
1785.186001,0.29129
1787.648326,0.29051
1790.117454,0.28981
1792.593414,0.28937
1795.07623,0.28892
1797.565933,0.28833
1800.062552,0.28754
1802.566116,0.2868
1805.076653,0.28633
1807.594193,0.28599
1810.118766,0.28536
1812.650403,0.28459
1815.189129,0.28393
1817.734976,0.28299
1820.287974,0.28241
1822.848154,0.28266
1825.415545,0.28242
1827.990179,0.28173
1830.572085,0.28142
1833.161299,0.28131
1835.757844,0.28085
1838.361756,0.28009
1840.973065,0.27949
1843.591803,0.27949
1846.218001,0.27962
1848.851693,0.27925
1851.492909,0.27925
1854.141686,0.27935
1856.798049,0.27858
1859.462034,0.27706
1862.133675,0.27627
1864.813003,0.27646
1867.500053,0.27643
1870.194858,0.27603
1872.897451,0.27574
1875.60787,0.27541
1878.326142,0.27532
1881.052305,0.27567
1883.786392,0.27598
1886.528439,0.27595
1889.27848,0.27561
1892.03655,0.275
1894.802685,0.27441
1897.576923,0.27379
1900.359294,0.27327
1903.149835,0.27295
1905.948585,0.27253
1908.755578,0.27252
1911.570851,0.27261
1914.394441,0.27228
1917.226385,0.27179
1920.066724,0.27141
1922.915487,0.27153
1925.772716,0.27142
1928.638449,0.27103
1931.512723,0.27109
1934.395578,0.271
1937.28705,0.27081
1940.18718,0.27078
1943.09601,0.2709
1946.013571,0.27119
1948.939907,0.27131
1951.875057,0.27099
1954.819061,0.27076
1957.771959,0.27083
1960.733792,0.27089
1963.7046,0.2709
1966.684429,0.27087
1969.67331,0.27095
1972.671291,0.27099
1975.678411,0.2708
1978.694713,0.2705
1981.72024,0.27025
1984.755033,0.27051
1987.799135,0.27103
1990.852594,0.2712
1993.915443,0.27119
1996.987732,0.27128
2000.069502,0.27144
2003.160799,0.27175
2006.261667,0.27202
2009.37215,0.27199
2012.492292,0.27191
2015.622144,0.27191
2018.761742,0.27208
2021.911136,0.27251
2025.070371,0.27282
2028.239495,0.2728
2031.418553,0.27292
2034.607593,0.27325
2037.806661,0.27341
2041.015809,0.27352
2044.235076,0.27401
2047.464515,0.27457
2050.704173,0.27488
2053.9541,0.27504
2057.214344,0.27507
2060.484955,0.27519
2063.765981,0.27553
2067.057478,0.27588
2070.359486,0.27631
2073.672061,0.27693
2076.995253,0.27748
2080.329113,0.27786
2083.673693,0.27822
2087.029044,0.27848
2090.39522,0.27851
2093.772276,0.27868
2097.160256,0.27921
2100.559219,0.27983
2103.969217,0.28023
2107.390304,0.28064
2110.822536,0.2811
2114.265965,0.28156
2117.720647,0.28217
2121.186643,0.28274
2124.663997,0.2833
2128.152772,0.28386
2131.653022,0.28433
2135.164806,0.28465
2138.68818,0.285
2142.223201,0.28583
2145.769927,0.28683
2149.328422,0.2873
2152.898735,0.28745
2156.480928,0.28766
2160.075063,0.28807
2163.681197,0.28886
2167.299393,0.28985
2170.929709,0.2906
2174.572208,0.29106
2178.226956,0.2918
2181.894004,0.2926
2185.57342,0.29272
2189.265266,0.29283
2192.969606,0.29362
2196.686503,0.29432
2200.416021,0.29467
2204.158225,0.29538
2207.913183,0.29631
2211.680953,0.29699
2215.461603,0.2975
2219.255201,0.29813
2223.061813,0.29891
2226.881507,0.29939
2230.714349,0.29956
2234.560407,0.30003
2238.419756,0.3009
2242.292454,0.30171
2246.178575,0.30231
2250.07819,0.30295
2253.991369,0.30366
2257.918183,0.30427
2261.858702,0.30473
2265.813,0.30518
2269.781154,0.30554
2273.763225,0.30583
2277.759293,0.30636
2281.769432,0.30718
2285.793716,0.30808
2289.832221,0.30875
2293.88502,0.30918
2297.952192,0.30965
2302.033816,0.31028
2306.129961,0.31094
2310.240709,0.31135
2314.366139,0.3116
2318.506328,0.31185
2322.661356,0.31231
2326.831304,0.31295
2331.016252,0.31351
2335.216286,0.31399
2339.431477,0.31455
2343.661913,0.31507
2347.907677,0.31538
2352.168852,0.31569
2356.445521,0.31618
2360.737771,0.31675
2365.045686,0.3173
2369.369358,0.3177
2373.708861,0.31796
2378.06429,0.31843
2382.435731,0.31895
2386.823273,0.31933
2391.227005,0.31973
2395.647017,0.32014
2400.0834,0.3205
2404.53625,0.3209
2409.005647,0.32139
2413.491691,0.32172
2417.994473,0.32178
2422.514088,0.32197
2427.050631,0.32248
2431.604196,0.323
2436.17488,0.32325
2440.762785,0.32345
2445.367997,0.32392
2449.99062,0.32435
2454.630753,0.32448
2459.288496,0.32446
2463.963948,0.32461
2468.657212,0.325
2473.368389,0.32524
2478.097588,0.32545
2482.844901,0.32572
2487.610438,0.32591
2492.394303,0.32619
2497.196603,0.32647
2502.017445,0.3266
2506.856937,0.32681
2511.715186,0.32692
2516.592308,0.32677
2521.488402,0.32651
2526.403583,0.32635
2531.337964,0.32606
2536.291658,0.32583
2541.264778,0.32581
2546.257439,0.32568
2551.269756,0.3259
2556.301852,0.32619
2561.353831,0.32546
2566.425818,0.32515
2571.517932,0.32586
2576.630293,0.32622
2581.763021,0.32608
2586.91624,0.32604
2592.090072,0.32605
2597.284647,0.32597
2602.500077,0.32628
2607.736495,0.32667
2612.994027,0.32716
2618.272802,0.32741
2623.572949,0.32781
2628.894597,0.32753
2634.237878,0.32726
2639.60293,0.32809
2644.989874,0.32869
2650.398851,0.32868
2655.829995,0.32857
2661.283444,0.32848
2666.759335,0.32798
2672.257807,0.3284
2677.779,0.33014
2683.323062,0.33086
2688.890121,0.33043
2694.480328,0.33032
2700.093828,0.33073
2705.730766,0.33013
2711.39129,0.32824
2717.075548,0.3263
2722.783689,0.3244
2728.515871,0.32427
2734.272233,0.32452
2740.052934,0.32322
2745.85813,0.32327
2751.687977,0.32412
2757.542631,0.32315
2763.422252,0.32102
2769.327,0.31997
2775.257043,0.32048
2781.212529,0.31984
2787.19363,0.31785
2793.200512,0.31701
2799.233341,0.3162
2805.292287,0.31471
2811.377519,0.31403
2817.489208,0.31343
2823.627536,0.31304
2829.79266,0.31292
2835.984766,0.31232
2842.20403,0.31188
2848.450631,0.31135
2854.72475,0.31049
2861.02657,0.31005
2867.356274,0.30992
2873.714055,0.30975
2880.100086,0.30942
2886.514561,0.30887
2892.957673,0.30845
2899.429613,0.30813
2905.930575,0.30785
2912.460755,0.30754
2919.020351,0.30695
2925.609569,0.30624
2932.228594,0.30569
2938.877637,0.30528
2945.556904,0.30505
2952.266599,0.30494
2959.006933,0.30487
2965.778115,0.30479
2972.580357,0.30441
2979.413883,0.30396
2986.278891,0.30361
2993.175608,0.30314
3000.104254,0.3028
3007.065051,0.30286
3014.058225,0.30334
3021.084,0.30371
3028.142607,0.30349
3035.234283,0.30285
3042.359245,0.30224
3049.517737,0.30191
3056.709994,0.30185
3063.936258,0.30185
3071.196769,0.30183
3078.491772,0.3018
3085.821513,0.3016
3093.186251,0.30118
3100.586217,0.30094
3108.021674,0.30077
3115.492879,0.30044
3123.000089,0.30039
3130.543567,0.30052
3138.123574,0.30052
3145.740377,0.3004
3153.394256,0.30023
3161.08546,0.3003
3168.814274,0.30073
3176.580974,0.301
3184.38584,0.30083
3192.229154,0.30071
3200.1112,0.30092
3208.032266,0.30113
3215.992653,0.3013
3223.992633,0.30175
3232.032514,0.30239
3240.112594,0.3029
3248.233176,0.30318
3256.394564,0.30341
3264.597068,0.30377
3272.840999,0.3042
3281.126681,0.30452
3289.454413,0.30468
3297.824524,0.30484
3306.237341,0.30511
3314.693189,0.30521
3323.192401,0.30494
3331.735311,0.30485
3340.322256,0.30505
3348.95359,0.30525
3357.629634,0.30516
3366.350748,0.30479
3375.117285,0.3045
3383.929601,0.30441
3392.788054,0.3043
3401.693008,0.30384
3410.64483,0.30313
3419.643903,0.30274
3428.690579,0.303
3437.785247,0.30359
3446.928291,0.30403
3456.120099,0.30415
3465.36106,0.30405
3474.651571,0.30385
3483.99203,0.30373
3493.382855,0.30377
3502.824429,0.30369
3512.317177,0.30365
3521.861515,0.30394
3531.457866,0.30433
3541.106657,0.30462
3550.808317,0.30464
3560.563284,0.30451
3570.372009,0.30448
3580.234914,0.30435
3590.15246,0.3042
3600.125104,0.30414
3610.153306,0.30408
3620.237532,0.3041
3630.378252,0.30415
3640.575942,0.30408
3650.831097,0.30404
3661.144177,0.304
3671.515689,0.30393
3681.946129,0.3039
3692.436003,0.30382
3702.985818,0.3037
3713.596091,0.30354
3724.267342,0.30333
3735.000113,0.30325
3745.79491,0.30328
3756.652285,0.30325
3767.572784,0.30316
3778.556959,0.30315
3789.605369,0.3032
3800.71858,0.30324
3811.897162,0.3031
3823.141709,0.30278
3834.452778,0.30251
3845.830974,0.30245
3857.276898,0.30246
3868.791155,0.30236
3880.37436,0.30202
3892.027134,0.30155
3903.750106,0.30126
3915.543926,0.30116
3927.409209,0.30103
3939.346621,0.30089
3951.356822,0.30068
3963.44048,0.30052
3975.598271,0.30041
3987.830879,0.30006
4000.138997,0.29955
4012.523342,0.29924
4024.984593,0.29907
4037.523484,0.29889
4050.140742,0.29872
4062.837106,0.29854
4075.613322,0.29826
4088.470144,0.29802
4101.408338,0.29784
4114.428697,0.29748
4127.531971,0.29709
4140.718972,0.29678
4153.990505,0.29632
4167.347385,0.29607
4180.790439,0.29853
4194.320503,0.3096
4207.938425,0.3358
4221.64508,0.37663
4235.441304,0.4
4249.327994,0.38719
4263.306045,0.37845
4277.376359,0.37785
4291.539855,0.36823
4305.79746,0.34924
4320.150116,0.32961
4334.598795,0.31427
4349.144426,0.30389
4363.788008,0.29753
4378.530532,0.29442
4393.373006,0.29348
4408.316449,0.29296
4423.361896,0.29208
4438.510393,0.29101
4453.763023,0.29021
4469.120824,0.28954
4484.584908,0.28863
4500.15638,0.28797
4515.836365,0.28761
4531.626,0.28684
4547.52644,0.28594
4563.538854,0.28513
4579.664452,0.28391
4595.904394,0.28224
4612.259923,0.28054
4628.732277,0.2784
4645.322713,0.27563
4662.032504,0.273
4678.862943,0.27067
4695.815342,0.26869
4712.891054,0.26728
4730.091384,0.26613
4747.417723,0.26468
4764.871462,0.26286
4782.45401,0.26086
4800.1668,0.25871
4818.011283,0.25649
4835.988934,0.25448
4854.101273,0.25311
4872.349771,0.25235
4890.735994,0.25154
4909.261506,0.25049
4927.927896,0.24956
4946.736778,0.24861
4965.68979,0.24731
4984.788594,0.24598
5004.034903,0.2449
5023.430384,0.24388
5042.976803,0.24279
5062.675928,0.24115
5082.529556,0.23882
5102.539511,0.23657
5122.707649,0.23469
5143.03585,0.23314
5163.526056,0.23246
5184.180157,0.23273
5205.000154,0.23341
5225.988055,0.23448
5247.145898,0.23597
5268.475756,0.23775
5289.979735,0.2396
5311.659976,0.24135
5333.518684,0.24242
5355.558014,0.24245
5377.780242,0.2419
5400.187657,0.24089
5422.78258,0.23962
5445.567377,0.23898
5468.544451,0.23886
5491.716246,0.23909
5515.085278,0.23931
5538.654014,0.23869
5562.425058,0.23675
5586.401024,0.23426
5610.584574,0.23246
5634.978416,0.23098
5659.585305,0.22988
5684.408043,0.22964
5709.449517,0.22952
5734.712564,0.22937
5760.200171,0.22922
5785.915346,0.22945
5811.861151,0.22964
5838.040701,0.2296
5864.457171,0.22967
5891.11379,0.22824
5918.013883,0.22567
5945.160732,0.22315
5972.557781,0.22127
6000.208507,0.22058
6028.116449,0.22081
6056.285213,0.22142
6084.718472,0.22258
6113.41997,0.22358
6142.393557,0.22363
6171.643046,0.22296
6201.172433,0.22223
6230.985758,0.22216
6261.087133,0.22262
6291.480755,0.22345
6322.1709,0.22457
6353.161929,0.22594
6384.458328,0.22718
6416.064553,0.22751
6447.985267,0.22735
6480.225188,0.22714
6512.789128,0.22655
6545.681997,0.22569
6578.908804,0.2241
6612.47466,0.2232
6646.384825,0.22435
6680.644535,0.226
6715.259268,0.22696
6750.234571,0.22739
6785.576107,0.22693
6821.28966,0.22596
6857.381134,0.2245
6893.856559,0.22329
6930.722144,0.2233
6967.984085,0.22337
7005.648858,0.22301
7043.72303,0.22252
7082.213314,0.22218
7121.126567,0.22153
7160.469802,0.22016
7200.250183,0.21891
7240.47509,0.21789
7281.15191,0.21647
7322.288355,0.21471
7363.892259,0.2131
7405.971636,0.21177
7448.534685,0.21016
7491.589791,0.20868
7535.145539,0.20772
7579.210768,0.20657
7623.794353,0.20528
7668.905555,0.20424
7714.553795,0.2032
7760.74872,0.20186
7807.500211,0.20042
7854.818386,0.19908
7902.713612,0.19779
7951.196573,0.19667
8000.278026,0.19569
8049.969186,0.19483
8100.281485,0.194
8151.226643,0.19309
8202.816677,0.19235
8255.063908,0.19193
8307.980976,0.1916
8361.580914,0.19125
8415.876885,0.19091
8470.882607,0.19077
8526.612089,0.19101
8583.07971,0.19187
8640.300232,0.19387
8698.288814,0.197
8757.061026,0.20058
8816.632938,0.20561
8877.020825,0.21303
8938.241648,0.22194
9000.312761,0.23111
9063.252001,0.23825
9127.077709,0.24194
9191.808745,0.243
9257.464511,0.24281
9324.065051,0.24315
9391.630729,0.24505
9460.182767,0.2473
9529.742923,0.24674
9600.3336,0.24181
9671.977869,0.23381
9744.699495,0.22519
9818.522964,0.21919
9893.473606,0.21814
9969.577237,0.22146
10046.86077,0.22704
10125.35186,0.23427
10205.07902,0.24158
10286.0717,0.24422
10368.36026,0.24218
10451.97605,0.24101
10536.95157,0.24235
10623.32001,0.24423
10711.11603,0.24403
10800.37531,0.23956
10891.13475,0.23225
10983.43249,0.22692
11077.30797,0.22835
11172.80199,0.23618
11269.9569,0.24341
11368.81615,0.2445
11469.42513,0.24024
11571.83069,0.2336
11676.0814,0.22676
11782.22758,0.2212
11890.32139,0.21749
12000.41694,0.21491
12112.5705,0.21254
12226.84001,0.21024
12343.28609,0.20841
12461.97152,0.207
12582.96151,0.2056
12706.32386,0.20416
12832.12902,0.2034
12960.45029,0.20367
13091.36408,0.20364
13224.94941,0.20263
13361.28907,0.20167
13500.46914,0.20138
13642.57932,0.20159
13787.71312,0.20202
13935.96807,0.20207
14087.44596,0.20201
14242.25324,0.20304
14400.50047,0.20567
14562.30382,0.20794
14727.78452,0.20776
14897.06937,0.20578
15070.29108,0.20201
15247.58859,0.19903
15429.10747,0.19846
15615.00054,0.19785
15805.42735,0.19672
16000.55605,0.19764
16200.56297,0.20294
16405.63335,0.21199
16615.96195,0.22064
16831.75363,0.22595
17053.22403,0.22904
17280.60061,0.23291
17514.12221,0.23792
17754.04165,0.24156
18000.62552,0.24504
18254.15542,0.24965
18514.92902,0.25112
18783.26128,0.24976
19059.48566,0.2534
19343.95592,0.26198
19637.04612,0.26599
19939.15447,0.26316
20250.70371,0.25562
20572.1434,0.24435
20903.95211,0.23331
21246.63979,0.22517
21600.75039,0.22077
21966.86522,0.21982
22345.60422,0.21971
22737.6323,0.21875
23143.66139,0.21713
23564.45516,0.2182
24000.83388,0.23134
24453.67973,0.24626
24923.94272,0.24677
25412.64804,0.23599
