Database of Origin,University of Winnipeg Spectrophotometer Facility
Sample Description,16. Meteorites. 16.1 Iron meteorites and components 16.1.2. UND samples.  (a) PSF D&P spectra
Other Information,only good to 4.3 um illum. spot larger than viewed spot (8mm)
Date Added,2018-07-23 23:32:11.440801

Data ID,FTIR_MET_4_1        
Sample ID,Tucson
Mineral Name,Tucson
Grain Size,Slab
Viewing Geometry,i=30/ e=0
Resolution,6 cm-1
Composition,Rusty Side
Material Class,Iron Meteorite

Wavelength
2000.56,0.18891651
2001.142,0.18871715
2001.725,0.18854459
2002.307,0.1884092
2002.891,0.18828756
2003.474,0.18816117
2004.058,0.18805547
2004.643,0.18802584
2005.227,0.18809065
2005.812,0.18818026
2006.397,0.18816889
2006.983,0.18797993
2007.569,0.18766064
2008.155,0.18734572
2008.742,0.18713649
2009.329,0.18702935
2009.916,0.18696458
2010.504,0.18691695
2011.092,0.186913
2011.68,0.18695714
2012.269,0.18698169
2012.858,0.1869001
2013.447,0.18670489
2014.037,0.18648856
2014.627,0.18636358
2015.217,0.1863691
2015.808,0.18646113
2016.399,0.18656831
2016.99,0.18663518
2017.582,0.18662917
2018.174,0.18653915
2018.766,0.18638827
2019.359,0.18623094
2019.952,0.18612435
2020.546,0.18609058
2021.139,0.18610234
2021.733,0.18609915
2022.328,0.18603093
2022.923,0.18589598
2023.518,0.18573882
2024.113,0.18560687
2024.709,0.18551042
2025.305,0.18542705
2025.902,0.18534269
2026.499,0.18528052
2027.096,0.18527652
2027.693,0.18532453
2028.291,0.1853666
2028.89,0.18535264
2029.488,0.1852958
2030.087,0.1852522
2030.686,0.18525391
2031.286,0.18527481
2031.886,0.18526132
2032.486,0.18518673
2033.087,0.18507272
2033.688,0.1849662
2034.289,0.18489847
2034.891,0.18486352
2035.493,0.18483421
2036.096,0.18479914
2036.698,0.18477898
2037.302,0.1847952
2037.905,0.1848233
2038.509,0.18479633
2039.113,0.18467602
2039.718,0.18451403
2040.322,0.18441258
2040.928,0.18441464
2041.533,0.18445485
2042.139,0.18443335
2042.746,0.18431878
2043.352,0.184161
2043.959,0.18402015
2044.567,0.18391616
2045.174,0.18384708
2045.782,0.18382222
2046.391,0.18384859
2047.0,0.18389709
2047.609,0.18390931
2048.218,0.18384862
2048.828,0.18373213
2049.438,0.18361332
2050.049,0.1835434
2050.66,0.18354745
2051.271,0.18361612
2051.883,0.18370402
2052.495,0.1837516
2053.107,0.18372479
2053.72,0.18363707
2054.333,0.18352748
2054.947,0.18342443
2055.56,0.18334041
2056.175,0.18329239
2056.789,0.18330253
2057.404,0.18337375
2058.019,0.18347819
2058.635,0.18357432
2059.251,0.18362543
2059.867,0.18360178
2060.484,0.18348778
2061.101,0.18330647
2061.718,0.18312478
2062.336,0.18300946
2062.954,0.18296906
2063.573,0.1829493
2064.192,0.18289213
2064.811,0.1827957
2065.431,0.18270873
2066.051,0.18267787
2066.671,0.18270645
2067.292,0.18275775
2067.913,0.18278771
2068.534,0.18278035
2069.156,0.18275947
2069.778,0.1827692
2070.401,0.18283607
2071.024,0.18294112
2071.647,0.18303406
2072.271,0.18307886
2072.895,0.18307845
2073.519,0.18304821
2074.144,0.18297252
2074.769,0.18280753
2075.395,0.1825416
2076.02,0.18224558
2076.647,0.18204467
2077.273,0.18203011
2077.9,0.18218973
2078.528,0.18242465
2079.155,0.1826254
2079.784,0.1827436
2080.412,0.18279742
2081.041,0.18282581
2081.67,0.18284116
2082.3,0.18282371
2082.93,0.18275409
2083.56,0.18264535
2084.191,0.18254766
2084.822,0.18251369
2085.454,0.18255639
2086.085,0.18264055
2086.718,0.18271707
2087.35,0.1827618
2087.983,0.18277652
2088.617,0.18275723
2089.251,0.18267439
2089.885,0.18250304
2090.519,0.18227251
2091.154,0.18206695
2091.789,0.18195628
2092.425,0.18192266
2093.061,0.18187442
2093.697,0.18174673
2094.334,0.18158042
2094.971,0.1814853
2095.609,0.18152531
2096.247,0.1816525
2096.885,0.18175625
2097.524,0.18176723
2098.163,0.18170046
2098.803,0.18160702
2099.443,0.18151676
2100.083,0.18143512
2100.723,0.18137249
2101.364,0.18134986
2102.006,0.18137312
2102.648,0.1814215
2103.29,0.18146952
2103.932,0.18150728
2104.575,0.18152945
2105.219,0.18151551
2105.862,0.18143457
2106.506,0.1812769
2107.151,0.18107426
2107.796,0.18088129
2108.441,0.18073404
2109.087,0.18062521
2109.733,0.18051865
2110.379,0.18039212
2111.026,0.18025978
2111.673,0.18014922
2112.321,0.18006285
2112.969,0.17997294
2113.617,0.17986504
2114.266,0.17977259
2114.915,0.17975316
2115.565,0.17982622
2116.215,0.17994741
2116.865,0.18004746
2117.516,0.18009121
2118.167,0.1800906
2118.819,0.18006859
2119.471,0.18002813
2120.123,0.17996083
2120.776,0.17987959
2121.429,0.17982778
2122.082,0.17984519
2122.736,0.17992799
2123.391,0.18002281
2124.045,0.18007054
2124.7,0.18005769
2125.356,0.18001984
2126.012,0.18000207
2126.668,0.18001411
2127.325,0.18003054
2127.982,0.18002779
2128.64,0.18000595
2129.297,0.17997319
2129.956,0.17992587
2130.614,0.17985796
2131.274,0.17978134
2131.933,0.17971968
2132.593,0.17967601
2133.253,0.17961806
2133.914,0.17951068
2134.575,0.17936873
2135.237,0.17926317
2135.899,0.17926607
2136.561,0.17938148
2137.224,0.17953175
2137.887,0.17961299
2138.55,0.17956973
2139.214,0.17942762
2139.879,0.17926379
2140.544,0.17914382
2141.209,0.1790847
2141.874,0.17906716
2142.54,0.17907107
2143.207,0.17908498
2143.873,0.17909107
2144.541,0.17906162
2145.208,0.17898481
2145.876,0.17888446
2146.545,0.17880376
2147.214,0.17876779
2147.883,0.17877022
2148.553,0.17879238
2149.223,0.17882432
2149.893,0.17886637
2150.564,0.17891859
2151.235,0.17898006
2151.907,0.17905323
2152.579,0.17914063
2153.252,0.17922772
2153.925,0.17928607
2154.598,0.17930115
2155.272,0.17929633
2155.946,0.17931532
2156.621,0.17937654
2157.296,0.17944821
2157.972,0.17947151
2158.647,0.17941429
2159.324,0.1793038
2160.001,0.17920829
2160.678,0.17918448
2161.355,0.17923509
2162.033,0.17931461
2162.712,0.17937412
2163.39,0.17940363
2164.07,0.17942973
2164.749,0.1794725
2165.429,0.17951382
2166.11,0.17951594
2166.791,0.17946944
2167.472,0.17941263
2168.154,0.17939731
2168.836,0.17944275
2169.519,0.17952371
2170.202,0.17959772
2170.885,0.17964294
2171.569,0.17966763
2172.254,0.17969201
2172.938,0.17972589
2173.624,0.17975601
2174.309,0.17974857
2174.995,0.17967254
2175.682,0.17953405
2176.368,0.17938513
2177.056,0.17929058
2177.743,0.17927964
2178.432,0.17933187
2179.12,0.1794065
2179.809,0.17947728
2180.499,0.17953352
2181.189,0.17956185
2181.879,0.17954805
2182.57,0.17950354
2183.261,0.17947625
2183.952,0.17951302
2184.644,0.17960724
2185.337,0.17969394
2186.03,0.17970773
2186.723,0.17964998
2187.417,0.17958997
2188.111,0.17959916
2188.806,0.17968561
2189.501,0.1797902
2190.196,0.17984344
2190.892,0.1798215
2191.589,0.17975279
2192.285,0.17968272
2192.983,0.17963932
2193.68,0.17962824
2194.379,0.17964236
2195.077,0.1796693
2195.776,0.17969245
2196.476,0.17969416
2197.175,0.1796654
2197.876,0.17961044
2198.577,0.1795445
2199.278,0.17948742
2199.979,0.17946339
2200.682,0.17949286
2201.384,0.17957734
2202.087,0.17968886
2202.79,0.17978266
2203.494,0.17982625
2204.199,0.17981826
2204.903,0.17977822
2205.609,0.17972947
2206.314,0.17969292
2207.02,0.17968757
2207.727,0.17972304
2208.434,0.17978593
2209.141,0.17984905
2209.849,0.17990199
2210.557,0.17996701
2211.266,0.18006667
2211.975,0.18017357
2212.685,0.18020526
2213.395,0.1800883
2214.106,0.17983745
2214.817,0.17956489
2215.528,0.17940663
2216.24,0.17942658
2216.952,0.17957962
2217.665,0.17975043
2218.379,0.17983082
2219.092,0.17978167
2219.806,0.17964962
2220.521,0.1795319
2221.236,0.17950658
2221.952,0.17957251
2222.668,0.17964935
2223.384,0.17965079
2224.101,0.17956269
2224.818,0.1794475
2225.536,0.17937383
2226.254,0.17935275
2226.973,0.17934261
2227.692,0.17930305
2228.412,0.17923729
2229.132,0.17917865
2229.853,0.17914973
2230.574,0.17914115
2231.295,0.17912937
2232.017,0.17910348
2232.74,0.17907327
2233.462,0.17905574
2234.186,0.17905485
2234.91,0.17905264
2235.634,0.17902114
2236.359,0.17894799
2237.084,0.17885126
2237.809,0.17876928
2238.536,0.17873471
2239.262,0.17875878
2239.989,0.17883034
2240.717,0.17892321
2241.445,0.17900157
2242.173,0.17902956
2242.902,0.17898669
2243.631,0.17888511
2244.361,0.17876611
2245.092,0.17867392
2245.822,0.17862077
2246.554,0.1785783
2247.285,0.17850237
2248.017,0.17837839
2248.75,0.17824932
2249.483,0.17819328
2250.217,0.17825561
2250.951,0.1783903
2251.686,0.1784777
2252.421,0.17841405
2253.156,0.17820205
2253.892,0.17795286
2254.628,0.17779789
2255.365,0.17778773
2256.103,0.17786789
2256.841,0.17794451
2257.579,0.17796654
2258.318,0.1779495
2259.057,0.17793737
2259.797,0.17795203
2260.537,0.17797643
2261.278,0.17797757
2262.019,0.17793775
2262.761,0.17786473
2263.503,0.17777731
2264.246,0.17768744
2264.989,0.17759993
2265.732,0.17752547
2266.477,0.17748662
2267.221,0.17749616
2267.966,0.17753233
2268.712,0.17754907
2269.458,0.17752373
2270.204,0.17748879
2270.951,0.17750203
2271.699,0.17758125
2272.447,0.17767421
2273.195,0.17770028
2273.944,0.17762189
2274.694,0.17747654
2275.444,0.17734354
2276.194,0.17728633
2276.945,0.17732025
2277.696,0.17741854
2278.448,0.17753634
2279.201,0.17763202
2279.954,0.17767903
2280.707,0.17766938
2281.461,0.1776116
2282.215,0.17752559
2282.97,0.1774312
2283.725,0.1773385
2284.481,0.17724667
2285.237,0.17715445
2285.994,0.17707104
2286.752,0.17701338
2287.509,0.17698961
2288.268,0.17698817
2289.026,0.17698837
2289.786,0.17698174
2290.545,0.17698032
2291.306,0.17700408
2292.067,0.17706144
2292.828,0.17713816
2293.59,0.17719567
2294.352,0.17718509
2295.115,0.17708192
2295.878,0.17692083
2296.642,0.17678606
2297.406,0.17674659
2298.171,0.17679222
2298.936,0.17684226
2299.702,0.17682402
2300.468,0.17674006
2301.235,0.17665522
2302.002,0.17662263
2302.77,0.17662704
2303.539,0.17660077
2304.307,0.176491
2305.077,0.1763154
2305.847,0.17615913
2306.617,0.17611468
2307.388,0.17621316
2308.159,0.17639906
2308.931,0.17656946
2309.703,0.17664602
2310.476,0.17662235
2311.25,0.17655442
2312.024,0.17651122
2312.798,0.17652708
2313.573,0.17658637
2314.348,0.1766459
2315.124,0.17667356
2315.901,0.17667471
2316.678,0.17668413
2317.455,0.17673072
2318.234,0.17680729
2319.012,0.1768719
2319.791,0.1768812
2320.571,0.17683305
2321.351,0.17677702
2322.131,0.17677789
2322.913,0.17685901
2323.694,0.17697904
2324.476,0.17707015
2325.259,0.17710395
2326.042,0.17711355
2326.826,0.17714639
2327.61,0.1772086
2328.395,0.17726072
2329.18,0.17726359
2329.966,0.17721303
2330.753,0.17713209
2331.54,0.17704828
2332.327,0.17698775
2333.115,0.17697702
2333.903,0.17702398
2334.692,0.17709479
2335.482,0.17713139
2336.272,0.17710686
2337.062,0.17705751
2337.854,0.17704347
2338.645,0.17707826
2339.437,0.17711028
2340.23,0.17708007
2341.023,0.17699143
2341.817,0.17691364
2342.611,0.17691711
2343.406,0.17700832
2344.201,0.1771302
2344.997,0.17721394
2345.794,0.17722771
2346.591,0.17718395
2347.388,0.17711552
2348.186,0.17704631
2348.985,0.17698108
2349.784,0.17692065
2350.583,0.17688212
2351.384,0.17689767
2352.184,0.176986
2352.986,0.17712442
2353.787,0.17725556
2354.59,0.17732846
2355.393,0.17733475
2356.196,0.17730418
2357.0,0.17727011
2357.804,0.17724179
2358.609,0.17721015
2359.415,0.17716855
2360.221,0.17712245
2361.028,0.17708349
2361.835,0.17706083
2362.643,0.17705404
2363.451,0.17704963
2364.26,0.17702654
2365.069,0.17696978
2365.879,0.17688668
2366.69,0.17680844
2367.501,0.17676866
2368.312,0.17677811
2369.125,0.17682308
2369.937,0.17688587
2370.751,0.17696092
2371.564,0.17704679
2372.379,0.17712917
2373.194,0.1771829
2374.009,0.17718894
2374.825,0.17714976
2375.642,0.17708818
2376.459,0.17703528
2377.276,0.17701369
2378.095,0.17702226
2378.913,0.17703337
2379.733,0.1770162
2380.553,0.17696959
2381.373,0.17692798
2382.194,0.17692654
2383.016,0.1769591
2383.838,0.17698299
2384.661,0.17696668
2385.484,0.17692434
2386.308,0.17689795
2387.132,0.17690906
2387.957,0.17693746
2388.783,0.17694171
2389.609,0.17689553
2390.435,0.17680603
2391.263,0.1767068
2392.09,0.1766346
2392.919,0.17660566
2393.748,0.17660474
2394.577,0.17659887
2395.407,0.17657007
2396.238,0.17653473
2397.069,0.17652881
2397.901,0.17657213
2398.733,0.17664594
2399.566,0.17670804
2400.399,0.17672803
2401.233,0.17670741
2402.068,0.17666897
2402.903,0.1766306
2403.739,0.17659179
2404.575,0.17654377
2405.412,0.17648546
2406.25,0.17642962
2407.088,0.17639151
2407.926,0.17637979
2408.766,0.17639443
2409.606,0.17643093
2410.446,0.17648257
2411.287,0.17653978
2412.128,0.17659033
2412.971,0.17662525
2413.813,0.17664505
2414.657,0.17666146
2415.5,0.17668984
2416.345,0.17673198
2417.19,0.1767628
2418.036,0.17674399
2418.882,0.17666289
2419.729,0.17655971
2420.576,0.17650391
2421.424,0.17653297
2422.272,0.17661837
2423.122,0.17669737
2423.971,0.17673415
2424.822,0.17674502
2425.673,0.17676235
2426.524,0.17678904
2427.376,0.17679375
2428.229,0.17675021
2429.082,0.1766716
2429.936,0.17660727
2430.791,0.17660699
2431.646,0.17668521
2432.501,0.1768096
2433.358,0.17692177
2434.214,0.17697401
2435.072,0.17695716
2435.93,0.17689957
2436.789,0.17684118
2437.648,0.17681087
2438.508,0.17682082
2439.368,0.17687244
2440.229,0.1769614
2441.091,0.17707958
2441.953,0.17721401
2442.816,0.17734327
2443.679,0.17743411
2444.543,0.17744879
2445.408,0.17737087
2446.273,0.17722705
2447.139,0.17707954
2448.006,0.17698449
2448.873,0.17696252
2449.74,0.17700208
2450.609,0.17708415
2451.478,0.1771895
2452.347,0.17728858
2453.217,0.17733925
2454.088,0.17731273
2454.959,0.17721933
2455.831,0.17710356
2456.704,0.17700622
2457.577,0.17693573
2458.451,0.17688156
2459.325,0.17684701
2460.2,0.17685494
2461.076,0.176918
2461.952,0.17701571
2462.829,0.17711111
2463.707,0.17718313
2464.585,0.17723492
2465.464,0.17726985
2466.343,0.17727759
2467.223,0.17725193
2468.104,0.17721434
2468.985,0.17720571
2469.867,0.17725089
2470.749,0.17733832
2471.632,0.17743834
2472.516,0.17753244
2473.4,0.1776201
2474.285,0.17769893
2475.171,0.17775197
2476.057,0.17776325
2476.944,0.17773886
2477.832,0.17770981
2478.72,0.17771074
2479.608,0.17775602
2480.498,0.17783219
2481.388,0.17791059
2482.278,0.1779707
2483.17,0.17801269
2484.062,0.17805454
2484.954,0.17811708
2485.847,0.17820824
2486.741,0.1783135
2487.636,0.17840153
2488.531,0.17844289
2489.427,0.17843628
2490.323,0.17841747
2491.22,0.17843105
2492.118,0.17848868
2493.016,0.17855618
2493.915,0.1785871
2494.814,0.17856858
2495.715,0.17852351
2496.615,0.17847316
2497.517,0.17841476
2498.419,0.17834644
2499.322,0.17830117
2500.225,0.17833581
2501.129,0.17848272
2502.034,0.17871476
2502.939,0.17895878
2503.845,0.1791326
2504.752,0.17917895
2505.659,0.17909439
2506.567,0.17894599
2507.476,0.17884793
2508.385,0.17888668
2509.295,0.17904919
2510.206,0.17922871
2511.117,0.17931941
2512.029,0.17931001
2512.942,0.17928124
2513.855,0.17931525
2514.769,0.17941828
2515.683,0.17952991
2516.598,0.17958759
2517.514,0.17957317
2518.431,0.17951451
2519.348,0.17946674
2520.266,0.17949172
2521.184,0.17962621
2522.103,0.17984757
2523.023,0.18007541
2523.944,0.180222
2524.865,0.18024758
2525.787,0.18017806
2526.709,0.18009692
2527.632,0.18013056
2528.556,0.18039946
2529.48,0.18092279
2530.406,0.18155593
2531.331,0.18206398
2532.258,0.18231575
2533.185,0.18238826
2534.113,0.18242721
2535.041,0.18242693
2535.971,0.18221168
2536.9,0.18167647
2537.831,0.18102085
2538.762,0.18067552
2539.694,0.18098567
2540.627,0.1819326
2541.56,0.18305953
2542.494,0.18372806
2543.428,0.18365857
2544.364,0.18319428
2545.3,0.1828984
2546.236,0.18300609
2547.174,0.18333228
2548.112,0.18362344
2549.05,0.18389551
2549.99,0.18431076
2550.93,0.18478111
2551.87,0.18487533
2552.812,0.18424753
2553.754,0.18306678
2554.697,0.18185835
2555.64,0.18108219
2556.585,0.1810227
2557.529,0.18191198
2558.475,0.18395143
2559.421,0.18711685
2560.368,0.19086878
2561.316,0.19403707
2562.264,0.19524473
2563.213,0.19388374
2564.163,0.19076737
2565.113,0.18754175
2566.065,0.18552334
2567.016,0.18513431
2567.969,0.18595458
2568.922,0.18708052
2569.876,0.18782577
2570.831,0.18825405
2571.786,0.18882018
2572.742,0.18965919
2573.699,0.19041239
2574.656,0.19061251
2575.615,0.1900758
2576.573,0.18893552
2577.533,0.18755903
2578.493,0.18653912
2579.454,0.18653699
2580.416,0.1879297
2581.378,0.19045954
2582.342,0.19309296
2583.305,0.19453625
2584.27,0.19438236
2585.235,0.19341711
2586.201,0.19254113
2587.168,0.19183878
2588.135,0.19073691
2589.103,0.18902918
2590.072,0.18763728
2591.042,0.18815013
2592.012,0.19196295
2592.983,0.19945196
2593.955,0.20790496
2594.927,0.21042731
2595.9,0.20419398
2596.874,0.19529518
2597.849,0.18897868
2598.824,0.18620693
2599.8,0.18621159
2600.777,0.18798906
2601.755,0.19076465
2602.733,0.19404624
2603.712,0.19725094
2604.692,0.19934506
2605.672,0.19934825
2606.653,0.19738958
2607.635,0.19463312
2608.618,0.19212716
2609.601,0.1902122
2610.585,0.18880456
2611.57,0.18791964
2612.556,0.18790911
2613.542,0.18922193
2614.529,0.19193038
2615.517,0.19534149
2616.505,0.19811274
2617.495,0.19923438
2618.485,0.19877026
2619.475,0.19713464
2620.467,0.19442319
2621.459,0.19105199
2622.452,0.18820561
2623.446,0.18704722
2624.44,0.18790784
2625.435,0.19015218
2626.431,0.1926095
2627.428,0.19454456
2628.426,0.19611674
2629.424,0.19749719
2630.423,0.19806057
2631.423,0.19703986
2632.423,0.19469891
2633.424,0.19205146
2634.426,0.18976406
2635.429,0.18792573
2636.432,0.18651807
2637.437,0.18569431
2638.442,0.18559362
2639.447,0.18607011
2640.454,0.18673072
2641.461,0.18729068
2642.469,0.18783834
2643.478,0.18862177
2644.488,0.18956826
2645.498,0.19011887
2646.509,0.18972669
2647.521,0.1885827
2648.534,0.18757393
2649.547,0.18753561
2650.561,0.18869986
2651.576,0.1905792
2652.592,0.19220492
2653.609,0.19275933
2654.626,0.19219296
2655.644,0.19119241
2656.663,0.19063835
2657.682,0.19106406
2658.703,0.19231539
2659.724,0.19360423
2660.746,0.19432307
2661.768,0.19504985
2662.792,0.19725415
2663.816,0.20191188
2664.841,0.20814706
2665.867,0.2129952
2666.894,0.21444105
2667.921,0.21413442
2668.949,0.21426831
2669.978,0.21412216
2671.008,0.21127055
2672.038,0.20595667
2673.07,0.20152743
2674.102,0.20062523
2675.135,0.20369672
2676.168,0.20895786
2677.203,0.21241907
2678.238,0.21085415
2679.274,0.20565658
2680.311,0.20052529
2681.349,0.19757297
2682.387,0.19700323
2683.426,0.19802419
2684.467,0.19944918
2685.507,0.20021889
2686.549,0.19988315
2687.591,0.19868141
2688.635,0.19729978
2689.679,0.19664596
2690.724,0.19764151
2691.769,0.20089998
2692.816,0.20614761
2693.863,0.21142109
2694.911,0.21354934
2695.96,0.21144553
2697.01,0.20766187
2698.06,0.20525745
2699.112,0.20546252
2700.164,0.20774736
2701.217,0.21046729
2702.27,0.21200017
2703.325,0.21212684
2704.38,0.21206612
2705.437,0.21332768
2706.494,0.21704368
2707.552,0.2239349
2708.61,0.23389572
2709.67,0.24452789
2710.73,0.25046342
2711.791,0.24802202
2712.853,0.24024206
2713.916,0.23266241
2714.98,0.22840748
2716.044,0.22864288
2717.109,0.23408531
2718.175,0.24499275
2719.242,0.25942208
2720.31,0.27154603
2721.379,0.27534844
2722.448,0.27154441
2723.518,0.26484118
2724.589,0.25687413
2725.661,0.24656318
2726.734,0.23451833
2727.808,0.22350515
2728.882,0.21547841
2729.958,0.21064779
2731.034,0.20844886
2732.111,0.20821195
2733.188,0.20900681
2734.267,0.20948166
2735.347,0.20882789
2736.427,0.20809834
2737.508,0.209544
2738.59,0.21428929
2739.673,0.21980245
2740.757,0.21957398
2741.841,0.21073879
2742.927,0.19883874
2744.013,0.18928834
2745.1,0.18323256
2746.188,0.17981703
2747.277,0.17792123
2748.367,0.17667895
2749.457,0.17562274
2750.549,0.17480523
2751.641,0.17480947
2752.734,0.17638598
2753.828,0.17963752
2754.923,0.1828495
2756.019,0.18253682
2757.115,0.17749643
2758.213,0.17110665
2759.311,0.1667685
2760.41,0.16535406
2761.51,0.16608108
2762.611,0.167282
2763.713,0.16729922
2764.816,0.16584531
2765.919,0.16394691
2767.024,0.16256019
2768.129,0.1618872
2769.235,0.16151326
2770.342,0.16073247
2771.45,0.15900726
2772.559,0.15644929
2773.669,0.15376604
2774.779,0.15164889
2775.891,0.15034272
2777.003,0.14968962
2778.116,0.14938388
2779.23,0.14915974
2780.345,0.14879623
2781.461,0.14811063
2782.578,0.14715525
2783.696,0.1463612
2784.814,0.14623402
2785.934,0.14679979
2787.054,0.14728012
2788.175,0.14652223
2789.297,0.14425274
2790.42,0.14142233
2791.544,0.13902915
2792.669,0.13739517
2793.795,0.13636784
2794.922,0.13566214
2796.049,0.13503109
2797.178,0.13434597
2798.307,0.13369541
2799.437,0.13341467
2800.568,0.13388696
2801.7,0.13514917
2802.833,0.13650615
2803.967,0.13671329
2805.102,0.13519866
2806.238,0.13277522
2807.374,0.13055495
2808.512,0.12897041
2809.65,0.12789452
2810.789,0.12710163
2811.93,0.12650241
2813.071,0.12606157
2814.213,0.12565714
2815.356,0.1251491
2816.5,0.12457667
2817.645,0.12415323
2818.791,0.12398501
2819.937,0.1238456
2821.085,0.12331624
2822.233,0.12223369
2823.383,0.12091544
2824.533,0.11983371
2825.685,0.1191936
2826.837,0.11884603
2827.99,0.11849747
2829.144,0.11800144
2830.299,0.11746404
2831.455,0.11707464
2832.612,0.11689042
2833.77,0.11679616
2834.929,0.11662446
2836.089,0.11628074
2837.25,0.11576363
2838.411,0.11511284
2839.574,0.11438059
2840.737,0.11363262
2841.902,0.11293295
2843.067,0.11231697
2844.234,0.11179578
2845.401,0.11137612
2846.569,0.11105013
2847.739,0.11076423
2848.909,0.11043971
2850.08,0.11006578
2851.252,0.10974031
2852.425,0.10955587
2853.599,0.10944177
2854.774,0.10916966
2855.95,0.10857487
2857.127,0.10777575
2858.305,0.1070915
2859.484,0.1067291
2860.664,0.1066082
2861.844,0.10647909
2863.026,0.10617491
2864.209,0.10573092
2865.392,0.1052804
2866.577,0.10490063
2867.763,0.1045842
2868.949,0.10431134
2870.137,0.104091
2871.325,0.10392003
2872.515,0.1037429
2873.705,0.10349594
2874.897,0.10318359
2876.089,0.1028743
2877.283,0.10262298
2878.477,0.10241534
2879.673,0.10218771
2880.869,0.10188984
2882.066,0.10152202
2883.265,0.10112839
2884.464,0.10078112
2885.664,0.10056121
2886.866,0.10051108
2888.068,0.10057843
2889.271,0.10061448
2890.476,0.10046287
2891.681,0.10007627
2892.887,0.09954711
2894.095,0.09902121
2895.303,0.0985927
2896.512,0.09828224
2897.723,0.09808494
2898.934,0.09800124
2900.146,0.09801048
2901.36,0.09803416
2902.574,0.09796425
2903.789,0.0977498
2905.006,0.09744388
2906.223,0.09715276
2907.441,0.09694566
2908.661,0.09680625
2909.881,0.09665779
2911.103,0.09644135
2912.325,0.09618955
2913.549,0.09601843
2914.773,0.09602086
2915.999,0.09615601
2917.225,0.09626312
2918.453,0.09620539
2919.681,0.09599411
2920.911,0.09575118
2922.142,0.09555535
2923.373,0.09535596
2924.606,0.09505682
2925.84,0.09466103
2927.075,0.09429037
2928.31,0.09406146
2929.547,0.09397494
2930.785,0.09393346
2932.024,0.09384953
2933.264,0.09372344
2934.505,0.09362334
2935.747,0.09360723
2936.99,0.09366111
2938.234,0.09370207
2939.479,0.09363685
2940.726,0.0934393
2941.973,0.09319909
2943.221,0.09309568
2944.471,0.09327848
2945.721,0.09371413
2946.973,0.09414433
2948.225,0.09424781
2949.479,0.0939072
2950.733,0.0933394
2951.989,0.0929374
2953.246,0.09294007
2954.504,0.09323245
2955.763,0.09345756
2957.023,0.09332913
2958.284,0.09285076
2959.546,0.09226309
2960.809,0.09182084
2962.073,0.09162872
2963.339,0.09164066
2964.605,0.0917523
2965.873,0.09186826
2967.141,0.09191661
2968.411,0.0918647
2969.681,0.09175869
2970.953,0.09172848
2972.226,0.09190262
2973.5,0.0922793
2974.775,0.09268385
2976.051,0.09287981
2977.328,0.09274194
2978.607,0.09233781
2979.886,0.09185924
2981.167,0.0914807
2982.448,0.09126287
2983.731,0.09115852
2985.015,0.0910935
2986.3,0.09105158
2987.586,0.09109185
2988.873,0.0912764
2990.161,0.0915711
2991.45,0.09183476
2992.74,0.09193418
2994.032,0.09186865
2995.324,0.09176588
2996.618,0.0917581
2997.913,0.09187722
2999.209,0.09206208
3000.506,0.09222868
3001.804,0.09231286
3003.103,0.09227611
3004.404,0.09211619
3005.705,0.0918832
3007.008,0.09166288
3008.312,0.09152844
3009.616,0.09151075
3010.922,0.09160756
3012.23,0.09179405
3013.538,0.09201111
3014.847,0.09217411
3016.158,0.09222822
3017.469,0.09219546
3018.782,0.09214766
3020.096,0.09212928
3021.411,0.09212268
3022.727,0.09209406
3024.044,0.09205709
3025.363,0.09208772
3026.683,0.09229154
3028.003,0.09274785
3029.325,0.0934381
3030.648,0.09419069
3031.972,0.09471936
3033.298,0.0947847
3034.624,0.09437689
3035.952,0.09375061
3037.281,0.09325985
3038.611,0.09313015
3039.942,0.09335661
3041.274,0.09377711
3042.607,0.09420742
3043.942,0.09451379
3045.278,0.09462167
3046.615,0.09451968
3047.953,0.09427394
3049.292,0.09400999
3050.632,0.09384463
3051.974,0.09381969
3053.317,0.0938993
3054.661,0.09402004
3056.006,0.09413795
3057.352,0.0942431
3058.7,0.09435621
3060.048,0.09452658
3061.398,0.09481152
3062.749,0.0952203
3064.101,0.09567082
3065.455,0.09601866
3066.809,0.09615479
3068.165,0.0960848
3069.522,0.09591633
3070.88,0.09577047
3072.239,0.09570768
3073.6,0.09572801
3074.962,0.09582182
3076.325,0.09599599
3077.689,0.09624423
3079.054,0.09650711
3080.421,0.0966913
3081.788,0.096752
3083.157,0.0967525
3084.527,0.09681606
3085.899,0.09699894
3087.271,0.09722408
3088.645,0.09735679
3090.02,0.09733881
3091.396,0.09723216
3092.774,0.09714421
3094.153,0.09714742
3095.532,0.09728206
3096.914,0.09758166
3098.296,0.09803208
3099.679,0.09850678
3101.064,0.0988075
3102.45,0.09881822
3103.837,0.09861345
3105.226,0.09839324
3106.616,0.09831247
3108.007,0.09838075
3109.399,0.09851436
3110.792,0.09864694
3112.187,0.09876983
3113.583,0.09889114
3114.98,0.09899864
3116.378,0.09907266
3117.778,0.09911329
3119.179,0.0991388
3120.581,0.09916664
3121.985,0.09920619
3123.389,0.09927046
3124.795,0.09938155
3126.202,0.0995535
3127.611,0.09976873
3129.02,0.09997709
3130.431,0.10012573
3131.844,0.10019505
3133.257,0.1002121
3134.672,0.10023415
3136.088,0.1003172
3137.505,0.10048446
3138.924,0.10071032
3140.344,0.10093593
3141.765,0.10111017
3143.187,0.1012289
3144.611,0.10133751
3146.036,0.10149064
3147.462,0.10170363
3148.89,0.10194194
3150.319,0.10215371
3151.749,0.10231355
3153.18,0.10243716
3154.613,0.1025603
3156.047,0.10270586
3157.482,0.10287061
3158.919,0.10303994
3160.357,0.10321001
3161.796,0.10338929
3163.236,0.10357715
3164.678,0.10374792
3166.121,0.10386951
3167.566,0.10394642
3169.011,0.10403308
3170.458,0.10418352
3171.907,0.10438976
3173.356,0.10459773
3174.807,0.10480066
3176.26,0.10509301
3177.713,0.1055841
3179.168,0.10624023
3180.624,0.10684245
3182.082,0.10714314
3183.541,0.10707501
3185.001,0.10680116
3186.463,0.10657045
3187.926,0.10654242
3189.39,0.10673869
3190.856,0.1071
3192.323,0.10753316
3193.791,0.10792088
3195.26,0.1081559
3196.731,0.10821298
3198.204,0.10818209
3199.677,0.10820627
3201.152,0.10836892
3202.629,0.10863436
3204.106,0.10889322
3205.585,0.10906784
3207.066,0.10918735
3208.548,0.10937762
3210.031,0.1097742
3211.515,0.11042511
3213.001,0.11124986
3214.488,0.11206982
3215.977,0.11267757
3217.467,0.11291804
3218.958,0.11277176
3220.451,0.11239785
3221.945,0.11206405
3223.441,0.11196873
3224.938,0.1120951
3226.436,0.11225137
3227.936,0.112276
3229.437,0.11219725
3230.939,0.11218473
3232.443,0.11235837
3233.948,0.1126632
3235.455,0.11293011
3236.963,0.11304224
3238.472,0.113037
3239.983,0.11306294
3241.495,0.1132485
3243.008,0.11360437
3244.523,0.11403953
3246.04,0.11445912
3247.558,0.11484155
3249.077,0.11522589
3250.598,0.11564895
3252.12,0.11611255
3253.643,0.11658986
3255.168,0.11702434
3256.694,0.11731532
3258.222,0.11734564
3259.751,0.11707469
3261.282,0.11661545
3262.814,0.11619907
3264.347,0.11603579
3265.882,0.11619225
3267.418,0.11657702
3268.956,0.11701579
3270.495,0.11734111
3272.036,0.11745815
3273.578,0.1173842
3275.122,0.1172419
3276.667,0.11718758
3278.213,0.1173142
3279.761,0.11760612
3281.31,0.11797761
3282.861,0.11834541
3284.413,0.11866559
3285.967,0.11892205
3287.522,0.11911313
3289.079,0.11927292
3290.637,0.11949034
3292.196,0.11986184
3293.757,0.12038637
3295.32,0.12090964
3296.884,0.12121392
3298.449,0.12120038
3300.016,0.12099297
3301.585,0.12084162
3303.155,0.12090503
3304.726,0.12112825
3306.299,0.12132837
3307.873,0.12138529
3309.449,0.12134194
3311.026,0.12133399
3312.605,0.12144503
3314.185,0.12163983
3315.767,0.12182578
3317.351,0.12195204
3318.936,0.12204847
3320.522,0.12219111
3322.11,0.12245234
3323.699,0.12287534
3325.29,0.12344951
3326.882,0.12407059
3328.476,0.1245392
3330.072,0.1246562
3331.669,0.12437407
3333.267,0.12385821
3334.867,0.12337568
3336.469,0.12310564
3338.072,0.12305304
3339.676,0.12312286
3341.282,0.12324127
3342.89,0.12339297
3344.499,0.12357869
3346.11,0.12378032
3347.722,0.12396854
3349.336,0.12411047
3350.952,0.12415665
3352.569,0.12404351
3354.187,0.12374308
3355.807,0.12331644
3357.429,0.12290405
3359.052,0.12264792
3360.677,0.12260308
3362.303,0.12269931
3363.931,0.122777
3365.56,0.12267367
3367.191,0.12231302
3368.824,0.12173704
3370.458,0.12105597
3372.093,0.12036124
3373.731,0.11968431
3375.37,0.11903209
3377.01,0.11843898
3378.652,0.1179664
3380.296,0.11765509
3381.941,0.11749822
3383.588,0.11746344
3385.236,0.11752386
3386.886,0.11766123
3388.538,0.1178538
3390.191,0.11808084
3391.846,0.11833071
3393.502,0.1185787
3395.16,0.11874972
3396.82,0.11873527
3398.481,0.11847881
3400.144,0.11804221
3401.809,0.11755122
3403.475,0.11705219
3405.143,0.11643208
3406.812,0.11551006
3408.483,0.11422065
3410.156,0.11270091
3411.83,0.11119689
3413.506,0.10989657
3415.183,0.10886113
3416.862,0.10809439
3418.543,0.10763502
3420.226,0.10755217
3421.91,0.10786124
3423.596,0.10847682
3425.283,0.10927381
3426.972,0.1101933
3428.663,0.11127725
3430.355,0.11259412
3432.049,0.11414154
3433.745,0.11583154
3435.442,0.11756872
3437.141,0.11931759
3438.842,0.12106897
3440.545,0.12273921
3442.249,0.12413335
3443.954,0.12504974
3445.662,0.12544909
3447.371,0.12552347
3449.082,0.1255839
3450.794,0.1258557
3452.509,0.12635662
3454.224,0.12695508
3455.942,0.12753267
3457.661,0.12808903
3459.382,0.12870178
3461.105,0.12940711
3462.829,0.13013364
3464.556,0.1307528
3466.283,0.13118506
3468.013,0.13145315
3469.744,0.13163736
3471.477,0.13178891
3473.212,0.13189556
3474.948,0.13192531
3476.686,0.13188393
3478.426,0.13181439
3480.168,0.13174912
3481.911,0.13169434
3483.656,0.13167878
3485.403,0.1317881
3487.152,0.13208997
3488.902,0.13249996
3490.654,0.13275311
3492.408,0.13256521
3494.164,0.13184456
3495.921,0.1307464
3497.68,0.12953078
3499.441,0.12839295
3501.204,0.12743225
3502.968,0.12673182
3504.734,0.12640178
3506.502,0.12653134
3508.272,0.12713941
3510.043,0.12819024
3511.817,0.12963037
3513.592,0.13137853
3515.368,0.13330063
3517.147,0.13523591
3518.927,0.13706158
3520.71,0.13871356
3522.494,0.14014856
3524.28,0.14132805
3526.067,0.14227333
3527.857,0.14311648
3529.648,0.14403355
3531.441,0.1450849
3533.236,0.14613309
3535.032,0.14695087
3536.831,0.1474236
3538.631,0.14763983
3540.433,0.14779046
3542.237,0.14800137
3544.043,0.14827324
3545.851,0.14855624
3547.66,0.14884145
3549.471,0.14916535
3551.284,0.1495541
3553.099,0.14999135
3554.916,0.15043613
3556.735,0.1508518
3558.555,0.15121518
3560.378,0.15152433
3562.202,0.15181191
3564.028,0.15213996
3565.856,0.152554
3567.686,0.15303325
3569.518,0.15349739
3571.351,0.15387104
3573.187,0.15414084
3575.024,0.15435509
3576.863,0.15458277
3578.704,0.15487933
3580.547,0.1552731
3582.392,0.1557479
3584.239,0.15623119
3586.088,0.15662358
3587.938,0.1568777
3589.791,0.15705621
3591.645,0.15729075
3593.501,0.15765973
3595.359,0.15810357
3597.22,0.1584736
3599.082,0.1586699
3600.946,0.15872822
3602.811,0.1587722
3604.679,0.15889582
3606.549,0.15910589
3608.421,0.15937024
3610.294,0.15968873
3612.17,0.16008777
3614.047,0.16054982
3615.926,0.16098271
3617.808,0.16128408
3619.691,0.16143657
3621.576,0.16152583
3623.463,0.16166065
3625.353,0.16188251
3627.244,0.1621505
3629.137,0.16240339
3631.032,0.16262261
3632.929,0.1628386
3634.828,0.16308887
3636.729,0.16337819
3638.632,0.163678
3640.537,0.16396226
3642.444,0.16424312
3644.353,0.16456588
3646.263,0.16496355
3648.176,0.16541028
3650.091,0.1658241
3652.008,0.16612196
3653.927,0.16628297
3655.848,0.16636243
3657.771,0.16644956
3659.696,0.16661243
3661.623,0.16686993
3663.552,0.16720155
3665.483,0.16756653
3667.416,0.16791799
3669.351,0.16822043
3671.288,0.16847721
3673.227,0.16874399
3675.168,0.16909892
3677.111,0.16957748
3679.057,0.17012975
3681.004,0.17064928
3682.953,0.17104804
3684.905,0.17131069
3686.858,0.17148701
3688.814,0.17164608
3690.771,0.1718396
3692.731,0.1720895
3694.693,0.17239252
3696.656,0.17272917
3698.622,0.17307789
3700.59,0.17342835
3702.56,0.173781
3704.532,0.17413251
3706.507,0.17446734
3708.483,0.17476807
3710.461,0.17503692
3712.442,0.17530232
3714.425,0.17560335
3716.409,0.17596198
3718.396,0.17636223
3720.385,0.17675605
3722.376,0.17709763
3724.37,0.17738307
3726.365,0.17765438
3728.362,0.17796241
3730.362,0.17832265
3732.364,0.17871134
3734.368,0.17910195
3736.374,0.17949752
3738.382,0.17992357
3740.392,0.18039176
3742.405,0.18088119
3744.419,0.18135269
3746.436,0.18177796
3748.455,0.18214888
3750.476,0.18246754
3752.499,0.1827403
3754.525,0.18298563
3756.553,0.18324185
3758.582,0.18355093
3760.614,0.18392714
3762.649,0.1843474
3764.685,0.18477996
3766.724,0.1852181
3768.764,0.18567579
3770.807,0.18615226
3772.853,0.18661339
3774.9,0.18701975
3776.95,0.1873672
3779.001,0.18768903
3781.056,0.18802055
3783.112,0.1883755
3785.17,0.18875636
3787.231,0.18917006
3789.294,0.18961798
3791.359,0.1900752
3793.427,0.19050075
3795.496,0.19087513
3797.568,0.19122376
3799.643,0.19159392
3801.719,0.19200996
3803.798,0.1924552
3805.879,0.19289371
3807.962,0.19329985
3810.048,0.19367108
3812.135,0.19402017
3814.225,0.19436581
3816.318,0.19472697
3818.412,0.19511676
3820.509,0.19553192
3822.609,0.19594908
3824.71,0.19633887
3826.814,0.19669156
3828.92,0.19703033
3831.029,0.1973916
3833.139,0.19778887
3835.252,0.19819762
3837.368,0.19858179
3839.486,0.19893286
3841.606,0.19927526
3843.728,0.19963577
3845.853,0.20001478
3847.98,0.20039372
3850.109,0.20076407
3852.241,0.20113964
3854.375,0.20153798
3856.512,0.20195823
3858.65,0.20238271
3860.792,0.20279926
3862.935,0.20321464
3865.081,0.20364304
3867.229,0.20408418
3869.38,0.20451594
3871.533,0.20491469
3873.689,0.20528258
3875.846,0.20565035
3878.007,0.20604975
3880.169,0.20648463
3882.334,0.20693139
3884.502,0.20736699
3886.672,0.2077884
3888.844,0.20820625
3891.019,0.20862575
3893.196,0.20903974
3895.375,0.20943811
3897.557,0.20981963
3899.742,0.21019324
3901.929,0.21057297
3904.118,0.21096966
3906.31,0.21137896
3908.504,0.21177714
3910.7,0.21213736
3912.9,0.21245968
3915.101,0.21278518
3917.305,0.2131683
3919.512,0.21362885
3921.721,0.21413249
3923.932,0.21462208
3926.146,0.21506589
3928.363,0.21547575
3930.581,0.21588598
3932.803,0.21632326
3935.027,0.21679404
3937.253,0.21728589
3939.482,0.2177727
3941.714,0.21822387
3943.948,0.21862511
3946.184,0.21899066
3948.423,0.21935411
3950.665,0.21974053
3952.909,0.22015265
3955.156,0.22058405
3957.405,0.2210402
3959.657,0.22153743
3961.911,0.22208125
3964.168,0.22265433
3966.427,0.22322787
3968.689,0.22378652
3970.954,0.22433593
3973.221,0.22489033
3975.491,0.22545039
3977.763,0.22599792
3980.038,0.22650965
3982.315,0.22697829
3984.595,0.22741944
3986.878,0.22786038
3989.163,0.22832792
3991.451,0.22884289
3993.742,0.2294172
3996.035,0.23004361
3998.33,0.23068627
4000.629,0.23129429
4002.93,0.23183922
4005.233,0.23233919
4007.54,0.23283743
4009.849,0.23335239
4012.16,0.23385901
4014.475,0.23432205
4016.791,0.23474229
4019.111,0.23515751
4021.433,0.2356015
4023.758,0.23607244
4026.086,0.23654571
4028.416,0.23701202
4030.749,0.23748998
4033.085,0.23800699
4035.423,0.2385723
4037.764,0.23917068
4040.108,0.23977303
4042.454,0.2403541
4044.804,0.2409084
4047.155,0.24145527
4049.51,0.24202706
4051.867,0.2426422
4054.228,0.24328841
4056.59,0.24394102
4058.956,0.24459355
4061.324,0.24526403
4063.695,0.24596448
4066.069,0.24667291
4068.446,0.24734845
4070.825,0.24797577
4073.207,0.24858701
4075.592,0.24923399
4077.98,0.24993909
4080.371,0.25067565
4082.764,0.25139551
4085.16,0.25207433
4087.559,0.25273138
4089.961,0.25340724
4092.365,0.2541255
4094.773,0.25487597
4097.183,0.25563516
4099.596,0.25639586
4102.012,0.25716838
4104.43,0.25795598
4106.852,0.2587401
4109.276,0.25949737
4111.703,0.26022716
4114.133,0.26095554
4116.566,0.26171109
4119.002,0.26250085
4121.441,0.26331138
4123.882,0.26412729
4126.327,0.26494987
4128.774,0.26579518
4131.224,0.26667965
4133.677,0.26760326
4136.133,0.26854209
4138.592,0.26945958
4141.054,0.27032899
4143.519,0.27115278
4145.987,0.27196036
4148.457,0.27279213
4150.931,0.27368224
4153.407,0.27464687
4155.887,0.2756736
4158.369,0.27671687
4160.854,0.27771566
4163.343,0.2786363
4165.834,0.27950412
4168.328,0.28038884
4170.826,0.28134476
4173.326,0.28236589
4175.829,0.28339698
4178.335,0.28439606
4180.844,0.28537845
4183.356,0.286409
4185.872,0.28755843
4188.39,0.28888394
4190.911,0.29045782
4193.435,0.29241397
4195.963,0.29496011
4198.493,0.29833754
4201.026,0.3027522
4203.563,0.30832292
4206.102,0.31505968
4208.645,0.32287032
4211.19,0.33157487
4213.739,0.34093507
4216.291,0.35071003
4218.846,0.36071485
4221.404,0.37081854
4223.965,0.38083919
4226.529,0.39044426
4229.096,0.39918266
4231.666,0.40659343
4234.24,0.41220621
4236.816,0.41552887
4239.396,0.41624842
4241.979,0.41433967
4244.565,0.4096094
4247.154,0.40139936
4249.746,0.38970225
4252.341,0.37667775
4254.94,0.36599467
4257.542,0.36067094
4260.146,0.3619639
4262.754,0.36930644
4265.366,0.38023508
4267.98,0.39086004
4270.598,0.39803417
4273.219,0.4014307
4275.843,0.40264176
4278.47,0.40300062
4281.1,0.40302467
4283.734,0.40302557
4286.371,0.40331039
4289.011,0.40380017
4291.655,0.4039137
4294.301,0.40309881
4296.951,0.4014181
4299.604,0.39948323
4302.261,0.39785229
4304.92,0.3965467
4307.583,0.39508451
4310.25,0.39295306
4312.919,0.39009907
4315.592,0.38698404
4318.268,0.38418817
4320.948,0.38198557
4323.631,0.3802462
4326.317,0.37867034
4329.006,0.37708413
4331.699,0.37553691
4334.395,0.37417506
4337.095,0.37309244
4339.797,0.37229976
4342.504,0.37178017
4345.213,0.37153112
4347.926,0.37154922
4350.642,0.37180635
4353.362,0.37224451
4356.085,0.37279294
4358.811,0.37338949
4361.541,0.37399745
4364.275,0.37460926
4367.011,0.3752296
4369.751,0.37585646
4372.495,0.37649712
4375.242,0.37719987
4377.992,0.37805478
4380.746,0.37913573
4383.504,0.38044325
4386.264,0.38190881
4389.029,0.38345274
4391.796,0.38502766
4394.567,0.38660891
4397.342,0.38816796
4400.12,0.38967198
4402.902,0.3911105
4405.687,0.39250261
4408.476,0.39387883
4411.268,0.39526598
4414.064,0.39668915
4416.863,0.39817288
4419.666,0.39972179
4422.472,0.40129766
4425.282,0.40282356
4428.096,0.4042209
4430.913,0.40544906
4433.734,0.40653026
4436.558,0.40754147
4439.386,0.4085781
4442.217,0.40970977
4445.052,0.4109539
4447.891,0.41227264
4450.733,0.41359098
4453.579,0.41482732
4456.428,0.4159278
4459.281,0.41688751
4462.138,0.41775397
4464.998,0.41859701
4467.863,0.41946476
4470.73,0.42036566
4473.602,0.42129021
4476.477,0.42223149
4479.355,0.42317812
4482.238,0.42410011
4485.124,0.42496495
4488.014,0.42576916
4490.908,0.42654438
4493.805,0.42732028
4496.706,0.42809166
4499.611,0.42882841
4502.519,0.42952318
4505.431,0.43022088
4508.347,0.4309798
4511.267,0.43181389
4514.191,0.43268881
4517.118,0.43357988
4520.049,0.43450253
4522.984,0.43548297
4525.923,0.4365111
4528.865,0.4375428
4531.812,0.43853537
4534.762,0.43947816
4537.716,0.44040034
4540.674,0.44133259
4543.635,0.44227561
4546.601,0.4432162
4549.57,0.44416207
4552.543,0.44514816
4555.521,0.4461998
4558.502,0.44729229
4561.487,0.44835444
4564.475,0.44932019
4567.468,0.45018828
4570.465,0.45102357
4573.465,0.4519085
4576.47,0.45288247
4579.478,0.45392856
4582.491,0.45500395
4585.507,0.45606903
4588.527,0.45709487
4591.551,0.45805209
4594.58,0.45892551
4597.612,0.45976987
4600.648,0.46070994
4603.688,0.46182957
4606.732,0.4630692
4609.781,0.46426379
4612.833,0.46530394
4615.889,0.46624578
4618.949,0.46724119
4622.014,0.46836806
4625.082,0.4695589
4628.155,0.470689
4631.231,0.47170499
4634.312,0.47266721
4637.397,0.4736713
4640.485,0.47477143
4643.578,0.47597483
4646.675,0.47726092
4649.777,0.4785688
4652.882,0.47980146
4655.991,0.48088386
4659.105,0.48183433
4662.223,0.48277082
4665.345,0.48380588
4668.471,0.48495295
4671.601,0.48615241
4674.735,0.48737823
4677.874,0.48866839
4681.017,0.49002996
4684.164,0.49136659
4687.315,0.49255234
4690.471,0.4935759
4693.63,0.4945693
4696.794,0.49567481
4699.962,0.49689824
4703.135,0.498127
4706.312,0.49927505
4709.493,0.50037772
4712.678,0.50154542
4715.868,0.50285831
4719.062,0.50430575
4722.26,0.50580125
4725.463,0.50722987
4728.669,0.50850672
4731.881,0.50962944
4735.096,0.5106753
4738.316,0.5117261
4741.541,0.5127956
4744.769,0.51382869
4748.002,0.51476845
4751.24,0.51562807
4754.482,0.5164894
4757.728,0.51743141
4760.979,0.51847504
4764.234,0.5195877
4767.494,0.52072184
4770.758,0.52185285
4774.026,0.52299028
4777.299,0.52413888
4780.577,0.5252411
4783.859,0.52620697
4787.145,0.52701387
4790.436,0.52775601
4793.732,0.52857471
4797.032,0.52955329
4800.336,0.53067247
4803.645,0.53185332
4806.959,0.53300838
4810.277,0.5340761
4813.6,0.53503555
4816.927,0.53590566
4820.259,0.53672188
4823.596,0.53752579
4826.937,0.53838307
4830.283,0.53938931
4833.633,0.54061469
4836.988,0.54199859
4840.348,0.54332049
4843.712,0.5443371
4847.081,0.54497844
4850.455,0.54539206
4853.833,0.54581809
4857.216,0.54641121
4860.604,0.54717258
4863.996,0.54803983
4867.393,0.54899364
4870.795,0.55003625
4874.202,0.55111021
4877.613,0.55211554
4881.03,0.55302912
4884.451,0.55395666
4887.876,0.55502572
4891.307,0.5562338
4894.742,0.55741476
4898.182,0.55834964
4901.627,0.55893691
4905.077,0.55927445
4908.532,0.55958102
4911.991,0.56008538
4915.456,0.56094472
4918.925,0.56215259
4922.399,0.56349353
4925.878,0.56466666
4929.362,0.56550581
4932.851,0.5660852
4936.345,0.56663023
4939.844,0.56735333
4943.347,0.56838163
4946.856,0.56974846
4950.37,0.57133644
4953.888,0.57283908
4957.412,0.57392134
4960.941,0.57448435
4964.474,0.5747405
4968.013,0.57501462
4971.556,0.57550393
4975.105,0.57621249
4978.659,0.57704943
4982.218,0.57793068
4985.782,0.57881424
4989.351,0.57972096
4992.925,0.58071698
4996.504,0.58179593
5000.088,0.58285005
5003.678,0.58387703
5007.272,0.5851773
5010.872,0.58714088
5014.477,0.58974785
5018.087,0.59230937
5021.703,0.59381602
5025.323,0.59374746
5028.949,0.59256267
5032.58,0.59126688
5036.216,0.59060567
5039.857,0.59072154
5043.504,0.59135127
5047.156,0.59218666
5050.813,0.59308539
5054.475,0.59402111
5058.143,0.59493971
5061.816,0.5957483
5065.495,0.59649135
5069.179,0.59747511
5072.868,0.59905499
5076.562,0.60119835
5080.262,0.60329402
5083.967,0.60456268
5087.678,0.60474974
5091.394,0.60435194
5095.115,0.60413199
5098.842,0.60449926
5102.574,0.60535341
5106.312,0.6063673
5110.055,0.60730696
5113.804,0.6081243
5117.558,0.60886065
5121.318,0.60953857
5125.083,0.61019316
5128.854,0.61104455
5132.63,0.61257392
5136.412,0.61520934
5140.199,0.61871106
5143.992,0.62189985
5147.791,0.62332553
5151.595,0.62252576
5155.405,0.62051471
5159.22,0.61887552
5163.041,0.61851894
5166.868,0.61927735
5170.7,0.62039055
5174.538,0.62123148
5178.382,0.6217328
5182.231,0.62236931
5186.086,0.62378045
5189.947,0.62625277
5193.814,0.62945483
5197.686,0.6327353
5201.564,0.63569553
5205.448,0.63827721
5209.338,0.64021022
5213.233,0.64076102
5217.134,0.63952482
5221.041,0.63738379
5224.954,0.63609217
5228.873,0.63672612
5232.798,0.63872247
5236.728,0.64049533
5240.665,0.64098936
5244.607,0.64050507
5248.555,0.64001192
5252.51,0.64009777
5256.47,0.64078618
5260.436,0.64199394
5264.408,0.64372156
5268.386,0.64581034
5272.37,0.64789756
5276.36,0.64983122
5280.356,0.65190139
5284.358,0.65433112
5288.367,0.65660227
5292.381,0.65765974
5296.401,0.65701728
5300.428,0.65542483
5304.46,0.65419397
5308.499,0.6540602
5312.544,0.65485587
5316.595,0.65601029
5320.652,0.65705041
5324.715,0.65774238
5328.785,0.65828699
5332.86,0.65967061
5336.942,0.6633842
5341.031,0.67007929
5345.125,0.67811562
5349.226,0.68377167
5353.333,0.6840688
5357.446,0.67973083
5361.566,0.67439031
5365.692,0.67118459
5369.824,0.6708245
5373.962,0.67214123
5378.107,0.67369761
5382.259,0.67492843
5386.417,0.67611225
5390.581,0.67767488
5394.751,0.67980349
5398.928,0.68271527
5403.112,0.6871472
5407.302,0.69425488
5411.498,0.70454691
5415.701,0.716451
5419.911,0.72608092
5424.127,0.72990345
5428.349,0.72854279
5432.579,0.72657389
5436.814,0.72834072
5441.057,0.73517087
5445.305,0.74610923
5449.561,0.76046997
5453.823,0.77928318
5458.092,0.80386719
5462.368,0.83324937
5466.65,0.86396582
5470.939,0.89347969
5475.234,0.92312706
5479.537,0.95641005
5483.846,0.99601385
5488.162,0.0104477943
5492.484,0.0110915273
5496.814,0.0119997164
5501.15,0.0133068039
5505.493,0.0151909503
5509.843,0.0179044492
5514.2,0.0210239351
5518.564,0.022544565
5522.934,0.0205952618
5527.312,0.0161305905
5531.696,0.0119225839
5536.087,0.85817846
5540.486,0.60215259
5544.891,0.41982842
5549.303,0.29524306
5553.723,0.21314583
5558.149,0.16312396
5562.582,0.13815514
5567.023,0.13453435
5571.47,0.14294811
5575.925,0.15777267
5580.387,0.17609376
5584.856,0.19496081
5589.332,0.21300695
5593.815,0.22965862
5598.305,0.24475758
5602.803,0.25850384
5607.307,0.27124493
5611.819,0.28330804
5616.339,0.29482161
5620.865,0.3055926
5625.399,0.31522371
5629.94,0.32344715
5634.489,0.33049755
5639.044,0.33723466
5643.607,0.34463123
5648.178,0.35292619
5652.756,0.36142532
5657.341,0.36917373
5661.934,0.37571467
5666.534,0.3812823
5671.142,0.38642773
5675.757,0.39152138
5680.379,0.39655351
5685.01,0.40129824
5689.647,0.40559742
5694.293,0.4095222
5698.945,0.41333071
5703.606,0.41730016
5708.274,0.4215621
5712.949,0.42603912
5717.633,0.43050771
5722.324,0.43473914
5727.022,0.43860604
5731.729,0.44210784
5736.443,0.445338
5741.165,0.44838935
5745.894,0.4512322
5750.631,0.45371492
5755.377,0.45578219
5760.13,0.45772039
5764.89,0.46010488
5769.659,0.46330079
5774.436,0.46701063
5779.22,0.47055109
5784.012,0.47351005
5788.813,0.47599651
5793.621,0.47839411
5798.437,0.48095855
5803.262,0.48363001
5808.094,0.48619339
5812.934,0.48854684
5817.782,0.4908136
5822.639,0.49320279
5827.503,0.49574696
5832.376,0.4982628
5837.257,0.50062325
5842.146,0.50294998
5847.043,0.50548883
5851.948,0.50830382
5856.862,0.51109323
5861.783,0.5133991
5866.714,0.51503014
5871.652,0.51622219
5876.598,0.51737766
5881.553,0.51866997
5886.517,0.51994497
5891.488,0.52106768
5896.468,0.52225488
5901.457,0.52390989
5906.454,0.52616762
5911.459,0.52870824
5916.473,0.53104317
5921.495,0.53293483
5926.526,0.53452804
5931.565,0.53610346
5936.613,0.53771214
5941.67,0.53914514
5946.735,0.54030142
5951.809,0.54135215
5956.891,0.54251175
5961.982,0.54383424
5967.082,0.54527538
5972.19,0.54681337
5977.307,0.54834312
5982.433,0.54950898
5987.568,0.54994672
5992.711,0.54982581
5997.864,0.54987179
6003.025,0.55061711
6008.195,0.5518272
6013.374,0.55283004
6018.562,0.55339045
6023.759,0.55399453
6028.964,0.55508296
6034.179,0.55635131
6039.403,0.55702775
6044.636,0.55696282
6049.878,0.55725786
6055.129,0.55897629
6060.389,0.56168333
6065.658,0.56390301
6070.936,0.56446319
6076.224,0.56353338
6081.52,0.56249224
6086.826,0.56261501
6092.141,0.56417658
6097.466,0.56659447
6102.8,0.56885883
6108.143,0.57002345
6113.495,0.56988338
6118.857,0.56920647
6124.228,0.56903492
6129.609,0.56988586
6134.999,0.5716068
6140.398,0.57368273
6145.807,0.57560038
6151.226,0.57708098
6156.654,0.57814023
6162.091,0.57902428
6167.539,0.58004332
6172.996,0.58134901
6178.462,0.58282131
6183.938,0.58424209
6189.424,0.58562654
6194.92,0.58725891
6200.425,0.58932016
6205.94,0.5916155
6211.465,0.59372232
6217.0,0.59539331
6222.544,0.59675311
6228.099,0.59805672
6233.663,0.59938437
6239.237,0.60066721
6244.822,0.60192153
6250.416,0.60331246
6256.02,0.60495518
6261.635,0.60674298
6267.259,0.60842493
6272.893,0.6098285
6278.538,0.61097873
6284.193,0.61203059
6289.858,0.61312999
6295.533,0.6143217
6301.218,0.61555883
6306.914,0.61681516
6312.619,0.61821608
6318.336,0.6199995
6324.062,0.62224365
6329.799,0.6246168
6335.546,0.62649499
6341.304,0.62757821
6347.072,0.62837271
6352.851,0.62970168
6358.64,0.63177291
6364.44,0.6339512
6370.25,0.63540627
6376.071,0.63602922
6381.903,0.63662063
6387.745,0.6381148
6393.598,0.64085508
6399.461,0.64444103
6405.335,0.64782139
6411.221,0.64978675
6417.116,0.65001459
6423.023,0.64940331
6428.941,0.64907484
6434.869,0.64951642
6440.809,0.65057724
6446.759,0.65194087
6452.72,0.65359682
6458.693,0.65587603
6464.676,0.65899143
6470.671,0.66254754
6476.676,0.66548986
6482.693,0.66674953
6488.721,0.66634726
6494.76,0.66567696
6500.81,0.6661456
6506.872,0.66791823
6512.945,0.67011089
6519.029,0.67178152
6525.124,0.67280255
6531.231,0.67387962
6537.35,0.67572115
6543.48,0.6783445
6549.621,0.6811572
6555.774,0.68354769
6561.938,0.68537476
6568.114,0.68693546
6574.302,0.68850757
6580.501,0.68997664
6586.712,0.69096941
6592.934,0.69138018
6599.169,0.69174696
6605.415,0.6929917
6611.673,0.69560982
6617.943,0.6989988
6624.224,0.70150187
6630.518,0.70153138
6636.823,0.69932891
6643.141,0.69701025
6649.47,0.69639314
6655.812,0.69768538
6662.166,0.69985719
6668.532,0.70151457
6674.91,0.7019593
6681.3,0.70185459
6687.702,0.70254431
6694.117,0.70469672
6700.544,0.70768254
6706.983,0.71002793
6713.435,0.71060682
6719.899,0.70962517
6726.375,0.70826646
6732.864,0.70755057
6739.365,0.70776346
6745.879,0.70871402
6752.406,0.7102296
6758.945,0.71233088
6765.497,0.71493635
6772.062,0.71744148
6778.639,0.7187558
6785.229,0.71817974
6791.832,0.71635158
6798.448,0.71482162
6805.076,0.714636
6811.718,0.71562506
6818.372,0.71687278
6825.039,0.71783006
6831.72,0.71894609
6838.413,0.72099769
6845.12,0.72393757
6851.84,0.72649271
6858.573,0.72712037
6865.319,0.72574164
6872.078,0.72389392
6878.851,0.72302549
6885.637,0.72345543
6892.437,0.72461336
6899.25,0.72568246
6906.076,0.72615352
6912.916,0.72607105
6919.769,0.72595383
6926.636,0.72651112
6933.517,0.72821471
6940.411,0.7308963
6947.319,0.73367381
6954.241,0.73551165
6961.176,0.73612782
6968.125,0.73616872
6975.089,0.73640224
6982.066,0.73702738
6989.057,0.73778055
6996.062,0.73845897
7003.081,0.73921187
7010.114,0.74039198
7017.161,0.74222307
7024.223,0.74460288
7031.298,0.74702032
7038.388,0.7486985
7045.492,0.74910933
7052.611,0.74848979
7059.743,0.74765475
7066.891,0.74730806
7074.052,0.74764142
7081.229,0.74848002
7088.419,0.74962195
7095.625,0.75095742
7102.845,0.75235169
7110.079,0.75363795
7117.329,0.75483303
7124.593,0.75624174
7131.872,0.75818702
7139.166,0.76060257
7146.475,0.76292717
7153.799,0.76446013
7161.137,0.76494516
7168.491,0.76485797
7175.86,0.76506476
7183.244,0.76612827
7190.643,0.76787229
7198.058,0.76955471
7205.487,0.7705395
7212.933,0.77086599
7220.393,0.7711168
7227.869,0.77182243
7235.36,0.77313457
7242.867,0.77493351
7250.39,0.77700946
7257.928,0.77906001
7265.481,0.7806869
7273.051,0.7815968
7280.636,0.7818656
7288.237,0.78193136
7295.854,0.78232379
7303.487,0.78338834
7311.135,0.78513928
7318.8,0.78721236
7326.481,0.78897839
7334.178,0.7899207
7341.891,0.79004769
7349.62,0.78988831
7357.366,0.7900145
7365.128,0.79060421
7372.906,0.79145925
7380.701,0.79234764
7388.512,0.79322611
7396.34,0.79415449
7404.184,0.79511102
7412.045,0.79602797
7419.922,0.79698672
7427.817,0.79826306
7435.728,0.80008202
7443.656,0.8023057
7451.601,0.8044048
7459.562,0.80581495
7467.541,0.80638562
7475.537,0.80647602
7483.55,0.80661114
7491.58,0.8070816
7499.628,0.80784302
7507.692,0.80869735
7515.774,0.80950642
7523.874,0.8102625
7531.99,0.81102945
7540.125,0.81188127
7548.277,0.81285893
7556.446,0.81393863
7564.633,0.81503441
7572.838,0.81605644
7581.061,0.81697385
7589.302,0.81781096
7597.56,0.81858348
7605.837,0.81926278
7614.131,0.81982651
7622.444,0.82031686
7630.774,0.82082275
7639.123,0.82140336
7647.491,0.82204836
7655.876,0.82272292
7664.28,0.82343122
7672.702,0.82421573
7681.143,0.82509561
7689.602,0.82601764
7698.08,0.8268842
7706.577,0.82763465
7715.093,0.82829729
7723.627,0.82895055
7732.18,0.82964175
7740.752,0.83034479
7749.343,0.8310007
7757.953,0.83159219
7766.583,0.8321664
7775.231,0.83278442
7783.899,0.83345552
7792.586,0.83413622
7801.292,0.83477928
7810.018,0.83538944
7818.764,0.83601707
7827.529,0.8367102
7836.313,0.83746691
7845.117,0.8382365
7853.942,0.83895186
7862.786,0.83956971
7871.649,0.8400889
7880.533,0.8405471
7889.437,0.84101478
7898.361,0.84157105
7907.305,0.84227259
7916.27,0.84311574
7925.254,0.84403682
7934.26,0.84495245
7943.285,0.84581376
7952.331,0.84662462
7961.398,0.84741727
7970.485,0.84822415
7979.594,0.8490604
7988.723,0.84993003
7997.872,0.85081946
8007.043,0.85169577
8016.235,0.85251534
8025.448,0.8532499
8034.682,0.85391126
8043.937,0.85454283
8053.214,0.85519036
8062.512,0.85586333
8071.832,0.85653035
8081.173,0.85714524
8090.535,0.85769622
8099.92,0.8582151
8109.326,0.85875074
8118.754,0.85931806
8128.204,0.85988731
8137.676,0.86041355
8147.169,0.86087733
8156.686,0.86129724
8166.224,0.86169862
8175.785,0.86209099
8185.368,0.86246797
8194.973,0.86282954
8204.601,0.86318825
8214.252,0.86356165
8223.925,0.86395634
8233.621,0.86437258
8243.34,0.86480442
8253.082,0.8652411
8262.847,0.86566288
8272.635,0.86604745
8282.446,0.86639012
8292.281,0.86671105
8302.139,0.86704485
8312.02,0.86741035
8321.925,0.86780746
8331.853,0.86823268
8341.805,0.86869096
8351.781,0.869184
8361.781,0.86969537
8371.804,0.87018931
8381.852,0.87064554
8391.924,0.87107876
8402.02,0.8715147
8412.14,0.87195216
8422.285,0.87234765
8432.454,0.87265329
8442.648,0.87286137
8452.866,0.87301359
8463.109,0.87316948
8473.377,0.8733673
8483.67,0.87361812
8493.988,0.87391658
8504.331,0.8742464
8514.699,0.87458075
8525.092,0.87488924
8535.511,0.87515432
8545.955,0.87538578
8556.425,0.87561479
8566.921,0.87587096
8577.442,0.87617314
8587.989,0.87651798
8598.562,0.87688731
8609.161,0.87725558
8619.786,0.87760603
8630.437,0.87793746
8641.115,0.87825719
8651.819,0.87856076
8662.55,0.87883561
8673.307,0.87907448
8684.091,0.8792918
8694.902,0.87951479
8705.739,0.87976209
8716.604,0.88003723
8727.496,0.88033753
8738.415,0.88066211
8749.361,0.88101108
8760.335,0.88137146
8771.336,0.88172199
8782.365,0.88205067
8793.422,0.88236158
8804.507,0.8826676
8815.619,0.88297219
8826.76,0.88326845
8837.928,0.88355562
8849.125,0.88385062
8860.351,0.88418343
8871.604,0.88457151
8882.887,0.88500342
8894.198,0.8854428
8905.538,0.88584954
8916.907,0.88619694
8928.305,0.88647553
8939.732,0.88668818
8951.188,0.88685681
8962.673,0.88701304
8974.189,0.88717946
8985.733,0.88735486
8997.308,0.88750898
9008.912,0.88761976
9020.546,0.88769475
9032.21,0.88776577
9043.905,0.88784836
9055.629,0.88791969
9067.384,0.88794255
9079.17,0.88789971
9090.986,0.88781505
9102.833,0.88772795
9114.711,0.88765643
9126.62,0.88758303
9138.56,0.88747356
9150.531,0.88730734
9162.534,0.88709755
9174.568,0.88689055
9186.634,0.88673605
9198.731,0.88665484
9210.86,0.88662057
9223.022,0.88658748
9235.215,0.88653278
9247.441,0.88648301
9259.699,0.88648496
9271.99,0.88655344
9284.313,0.88666097
9296.669,0.88676665
9309.058,0.88686396
9321.48,0.88698543
9333.935,0.88717185
9346.423,0.88743778
9358.945,0.8877688
9371.5,0.8881331
9384.089,0.8884995
9396.712,0.88884612
9409.369,0.88917805
9422.06,0.88952681
9434.785,0.88992679
9447.545,0.89038612
9460.339,0.89087653
9473.167,0.89137285
9486.031,0.89188287
9498.929,0.89244539
9511.863,0.89308338
9524.832,0.89376301
9537.836,0.89441208
9550.876,0.8949716
9563.951,0.89544124
9577.062,0.89586107
9590.209,0.89627353
9603.393,0.89668908
9616.612,0.89710051
9629.868,0.89751589
9643.16,0.89795609
9656.49,0.89843463
9669.856,0.89893486
9683.259,0.89942041
9696.699,0.89986459
9710.176,0.90026651
9723.691,0.9006481
9737.244,0.90103942
9750.834,0.90145967
9764.463,0.90191183
9778.129,0.90238394
9791.834,0.90285914
9805.577,0.90333055
9819.359,0.90379435
9833.18,0.90423435
9847.039,0.90461887
9860.938,0.90493129
9874.875,0.90520218
9888.853,0.90549687
9902.869,0.90586256
9916.926,0.90629101
9931.022,0.90673129
9945.159,0.90714335
9959.336,0.90752506
9973.553,0.90789531
9987.811,0.90826181
10002.109,0.90861234
10016.449,0.90893684
10030.83,0.90924335
10045.252,0.90954467
10059.715,0.90984641
10074.221,0.91014356
10088.768,0.91043732
10103.357,0.91073745
10117.988,0.91105683
10132.662,0.91139606
10147.378,0.91174897
10162.137,0.91210468
10176.939,0.9124548
10191.784,0.91279236
10206.672,0.91312087
10221.604,0.91345627
10236.58,0.91381341
10251.6,0.91418938
10266.663,0.9145551
10281.771,0.91487607
10296.924,0.91513945
10312.121,0.91535869
10327.363,0.91555734
10342.65,0.91575144
10357.982,0.91594736
10373.36,0.91614532
10388.784,0.91633468
10404.253,0.91649861
10419.769,0.91662871
10435.331,0.91673906
10450.939,0.91686186
10466.594,0.91700747
10482.296,0.91714666
10498.045,0.91723263
10513.842,0.91724963
10529.686,0.91723425
10545.577,0.91723871
10561.517,0.9172803
10577.505,0.91733127
10593.542,0.91734928
10609.627,0.91731751
10625.761,0.91723935
10641.944,0.91711602
10658.176,0.91694248
10674.458,0.91673215
10690.79,0.91652997
10707.172,0.91638942
10723.604,0.91632327
10740.086,0.91628284
10756.619,0.91619321
10773.203,0.91600963
10789.839,0.91574701
10806.525,0.91546089
10823.264,0.91519758
10840.054,0.91496025
10856.896,0.91472155
10873.791,0.91446754
10890.738,0.91422457
10907.738,0.91403345
10924.791,0.91389806
10941.898,0.91375862
10959.058,0.91353112
10976.272,0.91318327
10993.541,0.91276262
11010.863,0.91236125
11028.24,0.91204118
11045.672,0.91180136
11063.16,0.91160001
11080.702,0.91140397
11098.301,0.91120897
11115.955,0.91103458
11133.665,0.91089195
11151.432,0.91076295
11169.256,0.91060606
11187.137,0.91038108
11205.075,0.91008415
11223.07,0.90976657
11241.124,0.90950574
11259.235,0.90935477
11277.405,0.9093059
11295.634,0.90929136
11313.921,0.90923304
11332.268,0.90909105
11350.675,0.90888726
11369.141,0.9086826
11387.667,0.90853245
11406.254,0.90844821
11424.901,0.90839027
11443.61,0.9083021
11462.38,0.90815119
11481.211,0.90795239
11500.105,0.90774901
11519.06,0.90758265
11538.079,0.90747496
11557.16,0.90742412
11576.304,0.90741173
11595.511,0.90740117
11614.783,0.9073487
11634.118,0.90722053
11653.518,0.90702478
11672.983,0.90681525
11692.513,0.90666381
11712.108,0.90661256
11731.769,0.90664686
11751.496,0.90670622
11771.29,0.90672606
11791.15,0.90667118
11811.077,0.90655367
11831.072,0.90642161
11851.134,0.9063407
11871.265,0.90635983
11891.464,0.90649038
11911.731,0.90669705
11932.068,0.90691242
11952.475,0.90706937
11972.951,0.90711865
11993.497,0.90704342
12014.114,0.90686378
12034.802,0.90662364
12055.562,0.90637204
12076.393,0.90612777
12097.296,0.90587779
12118.271,0.90561839
12139.32,0.90538413
12160.441,0.90521742
12181.636,0.90510058
12202.905,0.90494248
12224.249,0.9046693
12245.667,0.90431448
12267.16,0.90400312
12288.729,0.90381946
12310.373,0.90372416
12332.094,0.90360342
12353.892,0.90339407
12375.767,0.90313753
12397.719,0.90291626
12419.75,0.90276881
12441.859,0.90268409
12464.046,0.90263771
12486.313,0.90261482
12508.659,0.90260707
12531.086,0.90260888
12553.593,0.90262952
12576.18,0.90267584
12598.85,0.90272326
12621.601,0.90271757
12644.434,0.90262776
12667.35,0.9024838
12690.349,0.90235363
12713.432,0.90228535
12736.599,0.9022697
12759.85,0.90226048
12783.187,0.90220712
12806.608,0.90208717
12830.116,0.90191471
12853.71,0.90173246
12877.391,0.90158184
12901.159,0.9014677
12925.016,0.90134222
12948.96,0.90114096
12972.993,0.90083522
12997.116,0.90044943
13021.329,0.90003862
13045.631,0.89965071
13070.025,0.89930543
13094.51,0.89899937
13119.087,0.89871769
13143.756,0.89844248
13168.518,0.89815745
13193.373,0.89784665
13218.322,0.89750888
13243.366,0.89716021
13268.505,0.89683656
13293.74,0.89656456
13319.07,0.89632785
13344.497,0.89607182
13370.021,0.89573942
13395.644,0.89531371
13421.364,0.89481215
13447.183,0.89424831
13473.102,0.89360678
13499.121,0.89287552
13525.24,0.89210133
13551.461,0.89139169
13577.783,0.89083067
13604.208,0.89037423
13630.736,0.88985523
13657.367,0.88912057
13684.103,0.88817187
13710.943,0.88716705
13737.889,0.8862548
13764.941,0.88543299
13792.099,0.88456182
13819.365,0.88352187
13846.739,0.88232357
13874.221,0.88106174
13901.813,0.87978511
13929.515,0.8784409
13957.327,0.87694787
13985.25,0.87530014
14013.285,0.87357997
14041.433,0.8718731
14069.694,0.87017412
14098.068,0.86838825
14126.558,0.86641808
14155.163,0.86424594
14183.883,0.8619283
14212.721,0.85953175
14241.676,0.85706418
14270.749,0.85446275
14299.94,0.85164454
14329.252,0.8485628
14358.684,0.84522792
14388.237,0.84168128
14417.911,0.83795339
14447.709,0.83404154
14477.629,0.82992066
14507.674,0.82555878
14537.844,0.82092029
14568.139,0.81595257
14598.561,0.81059132
14629.109,0.80477551
14659.786,0.7984728
14690.592,0.79172405
14721.528,0.78470307
14752.594,0.77765315
14783.791,0.7705442
14815.121,0.7626724
14846.583,0.7528154
14878.179,0.74019672
14909.91,0.72563246
14941.777,0.71161439
14973.78,0.70040167
15005.92,0.69160399
15038.198,0.68238575
15070.616,0.67013259
15103.173,0.65439441
15135.871,0.63656056
15168.712,0.61803329
15201.695,0.59887128
15234.821,0.57821218
15268.092,0.5555889
15301.509,0.53150302
15335.072,0.50695263
15368.783,0.48277565
15402.642,0.4593985
15436.651,0.43680333
15470.81,0.41456576
15505.12,0.39218383
15539.583,0.36957078
15574.199,0.34716592
15608.97,0.32553819
15643.896,0.30503219
15678.979,0.28580887
15714.22,0.26794746
15749.619,0.25134748
15785.178,0.2356922
15820.897,0.22068991
15856.779,0.20639641
15892.824,0.19323473
15929.033,0.18161407
15965.407,0.17150508
