Database of Origin,University of Winnipeg Spectrophotometer Facility
Sample Description,"HOSERLab master pyroxenes, FTIR data"
Date Added,2016-12-14 03:34:49.770364

Data ID,FTIR_PYX_09         
Sample ID,PYX108
Mineral Name,Orthopyroxene
Grain Size,<45 um
Viewing Geometry,"i=30, e=0"
Material Class,Inosilicate

Wavelength
2000.56,0.47052064
2001.142,0.47036477
2001.725,0.4701994
2002.307,0.47017013
2002.891,0.4702335
2003.474,0.47042001
2004.058,0.47075777
2004.643,0.47105561
2005.227,0.47113536
2005.812,0.47112404
2006.397,0.47119793
2006.983,0.47129682
2007.569,0.47134999
2008.155,0.47147574
2008.742,0.47171063
2009.329,0.47189716
2009.916,0.47200053
2010.504,0.47219454
2011.092,0.47252116
2011.68,0.47281141
2012.269,0.47297352
2012.858,0.47307345
2013.447,0.473151
2014.037,0.47321881
2014.627,0.47335317
2015.217,0.47358212
2015.808,0.47379322
2016.399,0.47391961
2016.99,0.47407191
2017.582,0.47437413
2018.174,0.47477408
2018.766,0.47510381
2019.359,0.47525309
2019.952,0.4752615
2020.546,0.47525141
2021.139,0.47528243
2021.733,0.47528736
2022.328,0.47518801
2022.923,0.47499413
2023.518,0.47478487
2024.113,0.47467589
2024.709,0.47479562
2025.305,0.47515396
2025.902,0.47558566
2026.499,0.47592808
2027.096,0.47617079
2027.693,0.47631662
2028.291,0.47629477
2028.89,0.47612704
2029.488,0.47599538
2030.087,0.47602275
2030.686,0.47618705
2031.286,0.47644902
2031.886,0.47676533
2032.486,0.47701935
2033.087,0.47716726
2033.688,0.4773527
2034.289,0.47769449
2034.891,0.4781008
2035.493,0.47843284
2036.096,0.47866249
2036.698,0.47879438
2037.302,0.47883819
2037.905,0.47888611
2038.509,0.47901527
2039.113,0.4791704
2039.718,0.47929412
2040.322,0.4794407
2040.928,0.47960996
2041.533,0.47970017
2042.139,0.47971164
2042.746,0.47977307
2043.352,0.47992169
2043.959,0.48008549
2044.567,0.48023981
2045.174,0.48037251
2045.782,0.48039555
2046.391,0.48030766
2047.0,0.48026211
2047.609,0.48034304
2048.218,0.48047705
2048.828,0.48065378
2049.438,0.48095269
2050.049,0.48133237
2050.66,0.48164435
2051.271,0.48185137
2051.883,0.48199984
2052.495,0.48208292
2053.107,0.48211457
2053.72,0.48220526
2054.333,0.48240343
2054.947,0.48263609
2055.56,0.48286226
2056.175,0.48309679
2056.789,0.48328722
2057.404,0.48337459
2058.019,0.48341673
2058.635,0.48349746
2059.251,0.4836148
2059.867,0.48376959
2060.484,0.48398362
2061.101,0.48418188
2061.718,0.48425436
2062.336,0.48423694
2062.954,0.48423491
2063.573,0.48426687
2064.192,0.48435246
2064.811,0.48457983
2065.431,0.48489506
2066.051,0.48508305
2066.671,0.48508808
2067.292,0.48507783
2067.913,0.48510683
2068.534,0.4850679
2069.156,0.48499172
2069.778,0.48503662
2070.401,0.48520383
2071.024,0.48541324
2071.647,0.48573447
2072.271,0.48620916
2072.895,0.48662013
2073.519,0.48677602
2074.144,0.48679848
2074.769,0.48686359
2075.395,0.48693509
2076.02,0.48697847
2076.647,0.4870861
2077.273,0.48721437
2077.9,0.48717879
2078.528,0.48704703
2079.155,0.487124
2079.784,0.4874779
2080.412,0.48787137
2081.041,0.48818889
2081.67,0.48851351
2082.3,0.48880978
2082.93,0.48894307
2083.56,0.48897899
2084.191,0.48909493
2084.822,0.48928756
2085.454,0.48944203
2086.085,0.48956577
2086.718,0.48970815
2087.35,0.4898365
2087.983,0.48997003
2088.617,0.49022994
2089.251,0.49061039
2089.885,0.49092511
2090.519,0.49104805
2091.154,0.49102171
2091.789,0.49091568
2092.425,0.49079412
2093.061,0.49077223
2093.697,0.49091644
2094.334,0.49112886
2094.971,0.4912662
2095.609,0.49129154
2096.247,0.49126061
2096.885,0.49126364
2097.524,0.49138849
2098.163,0.49162738
2098.803,0.49187592
2099.443,0.49209927
2100.083,0.49236563
2100.723,0.49266419
2101.364,0.49290038
2102.006,0.49309817
2102.648,0.4933546
2103.29,0.4936033
2103.932,0.49371156
2104.575,0.49372788
2105.219,0.49377706
2105.862,0.49382762
2106.506,0.49383199
2107.151,0.49389362
2107.796,0.49405389
2108.441,0.49414697
2109.087,0.49408535
2109.733,0.49401937
2110.379,0.49407418
2111.026,0.49418689
2111.673,0.49432163
2112.321,0.49453765
2112.969,0.49479633
2113.617,0.49497395
2114.266,0.49507855
2114.915,0.49520571
2115.565,0.49534134
2116.215,0.49541368
2116.865,0.49548622
2117.516,0.49569785
2118.167,0.49605184
2118.819,0.49639612
2119.471,0.49658479
2120.123,0.4965921
2120.776,0.49648797
2121.429,0.49637783
2122.082,0.49637492
2122.736,0.49655363
2123.391,0.49683557
2124.045,0.4970021
2124.7,0.49695108
2125.356,0.4968457
2126.012,0.49685869
2126.668,0.49692822
2127.325,0.49695627
2127.982,0.49702027
2128.64,0.49717269
2129.297,0.49730411
2129.956,0.49741433
2130.614,0.49768602
2131.274,0.49811569
2131.933,0.49844794
2132.593,0.49859838
2133.253,0.49870974
2133.914,0.49875983
2134.575,0.49860218
2135.237,0.49836423
2135.899,0.49831401
2136.561,0.49844013
2137.224,0.4985936
2137.887,0.49883565
2138.55,0.49922212
2139.214,0.49954753
2139.879,0.49967413
2140.544,0.49978338
2141.209,0.50001378
2141.874,0.50022778
2142.54,0.5003303
2143.207,0.50042596
2143.873,0.50053327
2144.541,0.50054775
2145.208,0.500506
2145.876,0.50054104
2146.545,0.50062223
2147.214,0.50067301
2147.883,0.50077232
2148.553,0.50098188
2149.223,0.50116335
2149.893,0.50118096
2150.564,0.50108785
2151.235,0.50098257
2151.907,0.50089523
2152.579,0.50086772
2153.252,0.50093371
2153.925,0.50103401
2154.598,0.5011314
2155.272,0.50131453
2155.946,0.5016273
2156.621,0.50194096
2157.296,0.50212702
2157.972,0.50219697
2158.647,0.50219618
2159.324,0.50214532
2160.001,0.50213147
2160.678,0.50225507
2161.355,0.50247213
2162.033,0.50265744
2162.712,0.50277978
2163.39,0.50286624
2164.07,0.50288876
2164.749,0.50285846
2165.429,0.50290881
2166.11,0.50312619
2166.791,0.50340799
2167.472,0.50362103
2168.154,0.50376961
2168.836,0.50389263
2169.519,0.50396284
2170.202,0.50399843
2170.885,0.50408955
2171.569,0.50423962
2172.254,0.50434092
2172.938,0.50436931
2173.624,0.50441389
2174.309,0.50449503
2174.995,0.50455368
2175.682,0.50462031
2176.368,0.50480121
2177.056,0.50509316
2177.743,0.50537196
2178.432,0.50553651
2179.12,0.50554146
2179.809,0.50537035
2180.499,0.50511074
2181.189,0.50495686
2181.879,0.50504825
2182.57,0.50536855
2183.261,0.50581136
2183.952,0.50624309
2184.644,0.50651348
2185.337,0.50655764
2186.03,0.50646604
2186.723,0.50637565
2187.417,0.506365
2188.111,0.50648443
2188.806,0.50673997
2189.501,0.50701814
2190.196,0.50716946
2190.892,0.50716888
2191.589,0.50708508
2192.285,0.50697256
2192.983,0.50691561
2193.68,0.50702968
2194.379,0.50728601
2195.077,0.5075116
2195.776,0.50765134
2196.476,0.50782816
2197.175,0.50810722
2197.876,0.50842819
2198.577,0.50876324
2199.278,0.50909407
2199.979,0.5092853
2200.682,0.50924598
2201.384,0.50913214
2202.087,0.50915789
2202.79,0.50931372
2203.494,0.50946532
2204.199,0.50958088
2204.903,0.509692
2205.609,0.50977003
2206.314,0.50981111
2207.02,0.50990561
2207.727,0.51010452
2208.434,0.51032476
2209.141,0.51047402
2209.849,0.51056092
2210.557,0.51060888
2211.266,0.51056156
2211.975,0.51039049
2212.685,0.51022682
2213.395,0.51023928
2214.106,0.5104169
2214.817,0.51061884
2215.528,0.51078304
2216.24,0.51091484
2216.952,0.51095006
2217.665,0.51087001
2218.379,0.51084661
2219.092,0.51101066
2219.806,0.51120538
2220.521,0.51124312
2221.236,0.51121054
2221.952,0.51123747
2222.668,0.51122318
2223.384,0.51107705
2224.101,0.51092852
2224.818,0.51087811
2225.536,0.51084653
2226.254,0.51081054
2226.973,0.5108343
2227.692,0.51084689
2228.412,0.51076554
2229.132,0.51074484
2229.853,0.51091715
2230.574,0.51106853
2231.295,0.51093734
2232.017,0.51060211
2232.74,0.5102717
2233.462,0.5100112
2234.186,0.50986761
2234.91,0.50991704
2235.634,0.51006511
2236.359,0.51014839
2237.084,0.51020493
2237.809,0.51033341
2238.536,0.51044184
2239.262,0.51043504
2239.989,0.5103918
2240.717,0.51036038
2241.445,0.51028576
2242.173,0.51023544
2242.902,0.51030846
2243.631,0.51036024
2244.361,0.51022293
2245.092,0.51004146
2245.822,0.51000183
2246.554,0.51000414
2247.285,0.50994712
2248.017,0.5099625
2248.75,0.51008417
2249.483,0.51014906
2250.217,0.51018649
2250.951,0.51039152
2251.686,0.51067669
2252.421,0.51079201
2253.156,0.51081038
2253.892,0.51094019
2254.628,0.51105586
2255.365,0.51095078
2256.103,0.51076617
2256.841,0.51070521
2257.579,0.51066449
2258.318,0.51051745
2259.057,0.51037696
2259.797,0.51030098
2260.537,0.5101483
2261.278,0.50991301
2262.019,0.50978903
2262.761,0.50981293
2263.503,0.50981045
2264.246,0.50969418
2264.989,0.50949844
2265.732,0.50918641
2266.477,0.5087159
2267.221,0.50821157
2267.966,0.50784511
2268.712,0.50764892
2269.458,0.50756308
2270.204,0.50755949
2270.951,0.50762168
2271.699,0.50770162
2272.447,0.5077328
2273.195,0.50764995
2273.944,0.50742542
2274.694,0.50711517
2275.444,0.50682664
2276.194,0.50662227
2276.945,0.5064756
2277.696,0.50630189
2278.448,0.50602696
2279.201,0.50567281
2279.954,0.50535854
2280.707,0.5051332
2281.461,0.50483572
2282.215,0.50424544
2282.97,0.50335096
2283.725,0.50233761
2284.481,0.50134417
2285.237,0.50038106
2285.994,0.49947487
2286.752,0.49872183
2287.509,0.49817864
2288.268,0.49781928
2289.026,0.49761485
2289.786,0.49756351
2290.545,0.4976532
2291.306,0.49788023
2292.067,0.4982911
2292.828,0.49887753
2293.59,0.49945241
2294.352,0.49977313
2295.115,0.49978956
2295.878,0.49961924
2296.642,0.49932631
2297.406,0.49892653
2298.171,0.49853857
2298.936,0.498295
2299.702,0.49812957
2300.468,0.4978845
2301.235,0.49754893
2302.002,0.49717483
2302.77,0.49666431
2303.539,0.49589174
2304.307,0.49494806
2305.077,0.49402674
2305.847,0.49315712
2306.617,0.49225034
2307.388,0.49129558
2308.159,0.49032576
2308.931,0.48931828
2309.703,0.48830966
2310.476,0.48750319
2311.25,0.487118
2312.024,0.48722572
2312.798,0.48784073
2313.573,0.48900706
2314.348,0.49064347
2315.124,0.49241456
2315.901,0.49394552
2316.678,0.49511916
2317.455,0.49603047
2318.234,0.49673353
2319.012,0.49723693
2319.791,0.49766154
2320.571,0.49817792
2321.351,0.49880714
2322.131,0.4994917
2322.913,0.50027315
2323.694,0.50119088
2324.476,0.50212588
2325.259,0.50297335
2326.042,0.5038176
2326.826,0.50470918
2327.61,0.50546912
2328.395,0.50595835
2329.18,0.5063205
2329.966,0.50672903
2330.753,0.50712524
2331.54,0.50741899
2332.327,0.50769094
2333.115,0.50803589
2333.903,0.50841426
2334.692,0.50877701
2335.482,0.50913233
2336.272,0.50944138
2337.062,0.50963945
2337.854,0.50977817
2338.645,0.50999226
2339.437,0.51032608
2340.23,0.5106911
2341.023,0.51097819
2341.817,0.51115462
2342.611,0.51125505
2343.406,0.51131905
2344.201,0.51137794
2344.997,0.51149523
2345.794,0.51170696
2346.591,0.51188971
2347.388,0.51187605
2348.186,0.51174588
2348.985,0.51174826
2349.784,0.51188939
2350.583,0.51193087
2351.384,0.51181041
2352.184,0.51168894
2352.986,0.51161153
2353.787,0.51155117
2354.59,0.51165873
2355.393,0.51200818
2356.196,0.51229667
2357.0,0.51225389
2357.804,0.51208006
2358.609,0.51205186
2359.415,0.51208716
2360.221,0.51208344
2361.028,0.51219888
2361.835,0.51244257
2362.643,0.51250589
2363.451,0.51228862
2364.26,0.51205669
2365.069,0.51192452
2365.879,0.51171843
2366.69,0.5114308
2367.501,0.51124144
2368.312,0.51110263
2369.125,0.51080856
2369.937,0.51040959
2370.751,0.51010402
2371.564,0.50986767
2372.379,0.50956465
2373.194,0.5092386
2374.009,0.50898714
2374.825,0.50875033
2375.642,0.50846856
2376.459,0.50824953
2377.276,0.50819525
2378.095,0.50822822
2378.913,0.50820319
2379.733,0.50806214
2380.553,0.50781773
2381.373,0.50750014
2382.194,0.50718178
2383.016,0.50699762
2383.838,0.50706778
2384.661,0.50735453
2385.484,0.50765774
2386.308,0.50781645
2387.132,0.50785538
2387.957,0.50786662
2388.783,0.50786377
2389.609,0.50787851
2390.435,0.50804679
2391.263,0.50843791
2392.09,0.50893212
2392.919,0.50940226
2393.748,0.50986122
2394.577,0.51033708
2395.407,0.51078799
2396.238,0.5112232
2397.069,0.5117201
2397.901,0.51223822
2398.733,0.51264343
2399.566,0.512955
2400.399,0.5133341
2401.233,0.51378592
2402.068,0.51414819
2402.903,0.51439026
2403.739,0.51466391
2404.575,0.51502153
2405.412,0.51534595
2406.25,0.51558861
2407.088,0.51581423
2407.926,0.51599769
2408.766,0.51604551
2409.606,0.51603222
2410.446,0.51613416
2411.287,0.51631966
2412.128,0.51639106
2412.971,0.51632456
2413.813,0.51628164
2414.657,0.51631938
2415.5,0.51637838
2416.345,0.51649342
2417.19,0.5167278
2418.036,0.51697081
2418.882,0.51706653
2419.729,0.51704216
2420.576,0.51697728
2421.424,0.51681491
2422.272,0.51651798
2423.122,0.51623782
2423.971,0.51612619
2424.822,0.51615321
2425.673,0.5162544
2426.524,0.51645442
2427.376,0.51672088
2428.229,0.51691596
2429.082,0.51699749
2429.936,0.51706568
2430.791,0.51714735
2431.646,0.51713739
2432.501,0.51702047
2433.358,0.51694564
2434.214,0.5170031
2435.072,0.5170951
2435.93,0.51711926
2436.789,0.51711194
2437.648,0.51712399
2438.508,0.51709767
2439.368,0.51698996
2440.229,0.51688126
2441.091,0.51685847
2441.953,0.51692116
2442.816,0.51707367
2443.679,0.51733421
2444.543,0.51759324
2445.408,0.51770974
2446.273,0.51778429
2447.139,0.51805801
2448.006,0.51852415
2448.873,0.51893826
2449.74,0.51916833
2450.609,0.51923926
2451.478,0.51914567
2452.347,0.51893561
2453.217,0.51879157
2454.088,0.51875354
2454.959,0.51862565
2455.831,0.51838928
2456.704,0.51831112
2457.577,0.51844894
2458.451,0.51851496
2459.325,0.51836891
2460.2,0.51815067
2461.076,0.51792298
2461.952,0.51769544
2462.829,0.51768304
2463.707,0.5180148
2464.585,0.51839255
2465.464,0.51851325
2466.343,0.51850437
2467.223,0.51856729
2468.104,0.51863443
2468.985,0.51869846
2469.867,0.51893758
2470.749,0.51930674
2471.632,0.51954981
2472.516,0.51968296
2473.4,0.51989688
2474.285,0.52010561
2475.171,0.52014326
2476.057,0.52017144
2476.944,0.52036324
2477.832,0.52052807
2478.72,0.5204884
2479.608,0.52043485
2480.498,0.52056616
2481.388,0.52079526
2482.278,0.52102248
2483.17,0.5212607
2484.062,0.52142085
2484.954,0.52140715
2485.847,0.52136647
2486.741,0.52147199
2487.636,0.52164159
2488.531,0.5217384
2489.427,0.52178489
2490.323,0.52177456
2491.22,0.52160914
2492.118,0.52134765
2493.016,0.52119648
2493.915,0.5212209
2494.814,0.52134411
2495.715,0.52151883
2496.615,0.52166834
2497.517,0.52168052
2498.419,0.52165273
2499.322,0.52183791
2500.225,0.52222386
2501.129,0.52254181
2502.034,0.5227217
2502.939,0.52290499
2503.845,0.52302756
2504.752,0.52291901
2505.659,0.52272504
2506.567,0.52271974
2507.476,0.52282296
2508.385,0.52282401
2509.295,0.52284418
2510.206,0.52308062
2511.117,0.52338366
2512.029,0.52357108
2512.942,0.52377836
2513.855,0.52405158
2514.769,0.52409058
2515.683,0.5238693
2516.598,0.52386837
2517.514,0.52424172
2518.431,0.52450431
2519.348,0.52447664
2520.266,0.52462964
2521.184,0.52510717
2522.103,0.52539186
2523.023,0.52531462
2523.944,0.52531056
2524.865,0.52540811
2525.787,0.52519434
2526.709,0.52491651
2527.632,0.52521571
2528.556,0.52583959
2529.48,0.5260046
2530.406,0.52585338
2531.331,0.52607319
2532.258,0.52646125
2533.185,0.52643618
2534.113,0.52637336
2535.041,0.5267925
2535.971,0.5271597
2536.9,0.52699354
2537.831,0.52702379
2538.762,0.52774938
2539.694,0.52833081
2540.627,0.52810177
2541.56,0.52775958
2542.494,0.52792506
2543.428,0.52804706
2544.364,0.52787542
2545.3,0.52812939
2546.236,0.52882157
2547.174,0.52893591
2548.112,0.5284155
2549.05,0.52839862
2549.99,0.52897437
2550.93,0.52894257
2551.87,0.5281918
2552.812,0.52797809
2553.754,0.52846219
2554.697,0.52856244
2555.64,0.52829801
2556.585,0.52862278
2557.529,0.52932699
2558.475,0.52935413
2559.421,0.52903495
2560.368,0.52953247
2561.316,0.53024193
2562.264,0.5295961
2563.213,0.52848554
2564.163,0.52868622
2565.113,0.52952313
2566.065,0.52965842
2567.016,0.52979619
2567.969,0.53076283
2568.922,0.53137168
2569.876,0.53071067
2570.831,0.53041485
2571.786,0.53139819
2572.742,0.53182747
2573.699,0.53074128
2574.656,0.53015331
2575.615,0.53083424
2576.573,0.53085365
2577.533,0.52994165
2578.493,0.53018423
2579.454,0.53151845
2580.416,0.53175623
2581.378,0.5310242
2582.342,0.53142954
2583.305,0.53243704
2584.27,0.53190262
2585.235,0.53105962
2586.201,0.53187706
2587.168,0.5328387
2588.135,0.53203425
2589.103,0.53134872
2590.072,0.53252999
2591.042,0.53415003
2592.012,0.53501942
2592.983,0.53645866
2593.955,0.53829938
2594.927,0.53718019
2595.9,0.53367529
2596.874,0.53233736
2597.849,0.53325983
2598.824,0.53382326
2599.8,0.53374527
2600.777,0.53442431
2601.755,0.53544466
2602.733,0.53530949
2603.712,0.53475853
2604.692,0.53513672
2605.672,0.53532802
2606.653,0.53432261
2607.635,0.53369478
2608.618,0.53428028
2609.601,0.5346906
2610.585,0.53432042
2611.57,0.53436976
2612.556,0.53526109
2613.542,0.53601283
2614.529,0.53628867
2615.517,0.53664566
2616.505,0.53694117
2617.495,0.53665234
2618.485,0.53624913
2619.475,0.5362603
2620.467,0.53616052
2621.459,0.53570065
2622.452,0.5355835
2623.446,0.53614214
2624.44,0.53679439
2625.435,0.53703122
2626.431,0.53702113
2627.428,0.53714303
2628.426,0.53746217
2629.424,0.53776257
2630.423,0.53773152
2631.423,0.53724892
2632.423,0.53666145
2633.424,0.53635955
2634.426,0.53638335
2635.429,0.53657905
2636.432,0.53685508
2637.437,0.53711854
2638.442,0.53727739
2639.447,0.53732741
2640.454,0.53729404
2641.461,0.53721062
2642.469,0.53720572
2643.478,0.53736258
2644.488,0.53746415
2645.498,0.53728493
2646.509,0.5370133
2647.521,0.53698887
2648.534,0.53725451
2649.547,0.53768624
2650.561,0.53812497
2651.576,0.53824919
2652.592,0.53788862
2653.609,0.53741118
2654.626,0.53719106
2655.644,0.53708206
2656.663,0.5369863
2657.682,0.53710607
2658.703,0.53726537
2659.724,0.53696196
2660.746,0.53647323
2661.768,0.53666512
2662.792,0.53752731
2663.816,0.53822428
2664.841,0.53838314
2665.867,0.5382004
2666.894,0.53769443
2667.921,0.5370508
2668.949,0.53674058
2669.978,0.53615472
2671.008,0.53406653
2672.038,0.53125507
2673.07,0.5297464
2674.102,0.52965257
2675.135,0.52943614
2676.168,0.5280991
2677.203,0.52583524
2678.238,0.5227934
2679.274,0.51913547
2680.311,0.51584351
2681.349,0.51340572
2682.387,0.51097445
2683.426,0.50778593
2684.467,0.50430006
2685.507,0.50097404
2686.549,0.49729213
2687.591,0.49304521
2688.635,0.48896205
2689.679,0.48538534
2690.724,0.48192752
2691.769,0.47843082
2692.816,0.47479922
2693.863,0.46987421
2694.911,0.46224246
2695.96,0.45247686
2697.01,0.44238429
2698.06,0.4327421
2699.112,0.42358036
2700.164,0.41506042
2701.217,0.40698368
2702.27,0.39848669
2703.325,0.38917486
2704.38,0.37970048
2705.437,0.37092905
2706.494,0.36359776
2707.552,0.35860803
2708.61,0.35634729
2709.67,0.35537917
2710.73,0.35313223
2711.791,0.34885171
2712.853,0.34398549
2713.916,0.33908296
2714.98,0.33293887
2716.044,0.32418338
2717.109,0.31234935
2718.175,0.29816977
2719.242,0.28420882
2720.31,0.27483746
2721.379,0.27321943
2722.448,0.27806358
2723.518,0.28563764
2724.589,0.29319119
2725.661,0.2990517
2726.734,0.30220126
2727.808,0.30302641
2728.882,0.30284485
2729.958,0.3025723
2731.034,0.30267282
2732.111,0.30398313
2733.188,0.30725855
2734.267,0.3117475
2735.347,0.31549709
2736.427,0.31772319
2737.508,0.31924801
2738.59,0.32066916
2739.673,0.32163599
2740.757,0.32180286
2741.841,0.32116365
2742.927,0.31972872
2744.013,0.31790888
2745.1,0.3165541
2746.188,0.3159109
2747.277,0.31540034
2748.367,0.31475078
2749.457,0.31440939
2750.549,0.3144092
2751.641,0.31415257
2752.734,0.31354847
2753.828,0.31300827
2754.923,0.31219933
2756.019,0.31045868
2757.115,0.30864647
2758.213,0.30796278
2759.311,0.307946
2760.41,0.30759703
2761.51,0.30687303
2762.611,0.30617037
2763.713,0.30532209
2764.816,0.30418574
2765.919,0.30336025
2767.024,0.30310633
2768.129,0.30284703
2769.235,0.3022552
2770.342,0.30174999
2771.45,0.3014232
2772.559,0.30081757
2773.669,0.30002868
2774.779,0.29964168
2775.891,0.29962035
2777.003,0.29941574
2778.116,0.2989213
2779.23,0.29843964
2780.345,0.29791992
2781.461,0.29715515
2782.578,0.2964328
2783.696,0.29608754
2784.814,0.29582855
2785.934,0.29519776
2787.054,0.29433872
2788.175,0.29375737
2789.297,0.29354001
2790.42,0.29340002
2791.544,0.29321409
2792.669,0.29296993
2793.795,0.29258132
2794.922,0.29204751
2796.049,0.29157836
2797.178,0.29132
2798.307,0.29114154
2799.437,0.29083689
2800.568,0.29036422
2801.7,0.28976798
2802.833,0.28908648
2803.967,0.28850132
2805.102,0.28830921
2806.238,0.28849194
2807.374,0.28866034
2808.512,0.28855877
2809.65,0.28833063
2810.789,0.28820526
2811.93,0.28816205
2813.071,0.28806442
2814.213,0.28792215
2815.356,0.28783702
2816.5,0.28784125
2817.645,0.28789915
2818.791,0.28794511
2819.937,0.28789902
2821.085,0.28779032
2822.233,0.28778497
2823.383,0.28796148
2824.533,0.28820853
2825.685,0.28840688
2826.837,0.2885002
2827.99,0.28840947
2829.144,0.28811772
2830.299,0.28777984
2831.455,0.28750237
2832.612,0.28715677
2833.77,0.2866302
2834.929,0.28605478
2836.089,0.28557613
2837.25,0.28518508
2838.411,0.28491432
2839.574,0.28482094
2840.737,0.28472593
2841.902,0.28443645
2843.067,0.28414994
2844.234,0.28414756
2845.401,0.28425274
2846.569,0.28412287
2847.739,0.28386305
2848.909,0.28379068
2850.08,0.28386446
2851.252,0.28388382
2852.425,0.28390974
2853.599,0.28399149
2854.774,0.28391965
2855.95,0.28366393
2857.127,0.28357107
2858.305,0.28376826
2859.484,0.28394314
2860.664,0.28393035
2861.844,0.28393218
2863.026,0.28399015
2864.209,0.2838263
2865.392,0.28335841
2866.577,0.28283223
2867.763,0.28236051
2868.949,0.28181977
2870.137,0.28123976
2871.325,0.28082743
2872.515,0.28057277
2873.705,0.28024585
2874.897,0.2798134
2876.089,0.27946211
2877.283,0.27922493
2878.477,0.27895313
2879.673,0.27865668
2880.869,0.2784912
2882.066,0.27840016
2883.265,0.27812116
2884.464,0.27762218
2885.664,0.27717911
2886.866,0.2769539
2888.068,0.27682161
2889.271,0.27667441
2890.476,0.27652558
2891.681,0.27625696
2892.887,0.27568303
2894.095,0.27493769
2895.303,0.2743783
2896.512,0.27406582
2897.723,0.27374902
2898.934,0.27335509
2900.146,0.27305364
2901.36,0.27285919
2902.574,0.27262126
2903.789,0.27239279
2905.006,0.27233491
2906.223,0.27233954
2907.441,0.27217739
2908.661,0.27190794
2909.881,0.2717393
2911.103,0.27164212
2912.325,0.2714991
2913.549,0.27145949
2914.773,0.27171403
2915.999,0.27207359
2917.225,0.27216378
2918.453,0.27190901
2919.681,0.27148927
2920.911,0.27100611
2922.142,0.27050546
2923.373,0.27014898
2924.606,0.27003767
2925.84,0.2700012
2927.075,0.2698233
2928.31,0.26954169
2929.547,0.26930132
2930.785,0.26912316
2932.024,0.26903107
2933.264,0.26918728
2934.505,0.26963654
2935.747,0.27010921
2936.99,0.27032307
2938.234,0.27032166
2939.479,0.27029413
2940.726,0.27026818
2941.973,0.27022428
2943.221,0.2703204
2944.471,0.27073729
2945.721,0.27140244
2946.973,0.27204719
2948.225,0.27243223
2949.479,0.27244903
2950.733,0.272173
2951.989,0.2718882
2953.246,0.27188867
2954.504,0.27216297
2955.763,0.2724
2957.023,0.27235604
2958.284,0.27208926
2959.546,0.27183013
2960.809,0.27174496
2962.073,0.27186235
2963.339,0.27212536
2964.605,0.27243897
2965.873,0.27269115
2967.141,0.27280533
2968.411,0.27281895
2969.681,0.27289796
2970.953,0.27321422
2972.226,0.2738168
2973.5,0.2746225
2974.775,0.27545237
2976.051,0.27605248
2977.328,0.27622052
2978.607,0.27601933
2979.886,0.27576184
2981.167,0.27569946
2982.448,0.27583754
2983.731,0.27607583
2985.015,0.27635433
2986.3,0.27662493
2987.586,0.27686827
2988.873,0.27717289
2990.161,0.27761185
2991.45,0.27803942
2992.74,0.27822487
2994.032,0.27819566
2995.324,0.27823265
2996.618,0.2785133
2997.913,0.27897265
2999.209,0.27951204
3000.506,0.28010792
3001.804,0.28067226
3003.103,0.28103363
3004.404,0.28114322
3005.705,0.28113722
3007.008,0.28114122
3008.312,0.28117242
3009.616,0.28127196
3010.922,0.2815343
3012.23,0.28193415
3013.538,0.2823045
3014.847,0.28255393
3016.158,0.28272764
3017.469,0.28283182
3018.782,0.28282645
3020.096,0.28281016
3021.411,0.28296023
3022.727,0.28326106
3024.044,0.28355135
3025.363,0.28383992
3026.683,0.2843209
3028.003,0.28509015
3029.325,0.28608524
3030.648,0.28720334
3031.972,0.28821293
3033.298,0.28870575
3034.624,0.2884689
3035.952,0.28781523
3037.281,0.28729351
3038.611,0.28719042
3039.942,0.2874923
3041.274,0.28810138
3042.607,0.28884143
3043.942,0.28942869
3045.278,0.28967754
3046.615,0.28964777
3047.953,0.28949995
3049.292,0.28934494
3050.632,0.28927633
3051.974,0.28937937
3053.317,0.28964258
3054.661,0.2899609
3056.006,0.29026118
3057.352,0.29056346
3058.7,0.29092916
3060.048,0.29140117
3061.398,0.29198291
3062.749,0.29263379
3064.101,0.29325837
3065.455,0.29369812
3066.809,0.29381088
3068.165,0.29363973
3069.522,0.29343741
3070.88,0.29342852
3072.239,0.29362145
3073.6,0.29393537
3074.962,0.29435704
3076.325,0.29485611
3077.689,0.29531063
3079.054,0.29565191
3080.421,0.2959348
3081.788,0.29619775
3083.157,0.29644287
3084.527,0.29677398
3085.899,0.29730289
3087.271,0.29790404
3088.645,0.29831997
3090.02,0.29850627
3091.396,0.29862587
3092.774,0.29874431
3094.153,0.29881716
3095.532,0.29893338
3096.914,0.29927864
3098.296,0.29987254
3099.679,0.30054204
3101.064,0.30109818
3102.45,0.30140042
3103.837,0.30137583
3105.226,0.30114272
3106.616,0.30099673
3108.007,0.3011364
3109.399,0.3014971
3110.792,0.30192918
3112.187,0.30238944
3113.583,0.30287376
3114.98,0.30331807
3116.378,0.30367163
3117.778,0.30398356
3119.179,0.30433447
3120.581,0.30474021
3121.985,0.30516981
3123.389,0.3056131
3124.795,0.30607908
3126.202,0.30655709
3127.611,0.30702851
3129.02,0.30751292
3130.431,0.30805172
3131.844,0.30863314
3133.257,0.30918783
3134.672,0.30969254
3136.088,0.31020369
3137.505,0.31075164
3138.924,0.31128694
3140.344,0.3117968
3141.765,0.312359
3143.187,0.31300053
3144.611,0.31362744
3146.036,0.31418984
3147.462,0.31477242
3148.89,0.31542307
3150.319,0.31606336
3151.749,0.31664285
3153.18,0.31720277
3154.613,0.31772321
3156.047,0.31812257
3157.482,0.31845431
3158.919,0.31888344
3160.357,0.3194355
3161.796,0.32000377
3163.236,0.32059334
3164.678,0.32129757
3166.121,0.32205638
3167.566,0.32271785
3169.011,0.32329558
3170.458,0.32390318
3171.907,0.32450234
3173.356,0.32499432
3174.807,0.32548851
3176.26,0.3262211
3177.713,0.32724411
3179.168,0.32837611
3180.624,0.32936608
3182.082,0.32998528
3183.541,0.33013055
3185.001,0.32999574
3186.463,0.32998867
3187.926,0.33035506
3189.39,0.33102798
3190.856,0.33187106
3192.323,0.33284259
3193.791,0.33383701
3195.26,0.33460496
3196.731,0.3349845
3198.204,0.33509352
3199.677,0.33520377
3201.152,0.33551074
3202.629,0.33604929
3204.106,0.33672049
3205.585,0.33736349
3207.066,0.33789333
3208.548,0.33842387
3210.031,0.33918794
3211.515,0.34030512
3213.001,0.34166472
3214.488,0.34302725
3215.977,0.34415262
3217.467,0.34483764
3218.958,0.34497861
3220.451,0.34471239
3221.945,0.34441527
3223.441,0.34445216
3224.938,0.34489675
3226.436,0.34552415
3227.936,0.34605437
3229.437,0.34639873
3230.939,0.34669198
3232.443,0.34712552
3233.948,0.34774385
3235.455,0.34840804
3236.963,0.34894338
3238.472,0.34931522
3239.983,0.34966577
3241.495,0.35018967
3243.008,0.35094294
3244.523,0.35177325
3246.04,0.35248004
3247.558,0.35303957
3249.077,0.35360209
3250.598,0.35429764
3252.12,0.35514974
3253.643,0.35613524
3255.168,0.35716158
3256.694,0.35801769
3258.222,0.35850181
3259.751,0.35859974
3261.282,0.35845378
3262.814,0.35825617
3264.347,0.3582526
3265.882,0.35866008
3267.418,0.3594271
3268.956,0.36024065
3270.495,0.36086454
3272.036,0.36131136
3273.578,0.36165715
3275.122,0.36193533
3276.667,0.36225123
3278.213,0.36273495
3279.761,0.36334469
3281.31,0.36395054
3282.861,0.36457297
3284.413,0.3652905
3285.967,0.36599253
3287.522,0.36650186
3289.079,0.36686386
3290.637,0.36728604
3292.196,0.36787618
3293.757,0.36860838
3295.32,0.36938711
3296.884,0.37000591
3298.449,0.37024635
3300.016,0.37017887
3301.585,0.37017269
3303.155,0.37048561
3304.726,0.37101669
3306.299,0.37152641
3307.873,0.37189876
3309.449,0.37216044
3311.026,0.3724278
3312.605,0.37286214
3314.185,0.37352108
3315.767,0.37426183
3317.351,0.3749002
3318.936,0.37542976
3320.522,0.37600346
3322.11,0.37676335
3323.699,0.3777617
3325.29,0.37895075
3326.882,0.38016684
3328.476,0.38117639
3330.072,0.38178587
3331.669,0.38192655
3333.267,0.38169114
3334.867,0.38133157
3336.469,0.38112537
3338.072,0.38116993
3339.676,0.38136526
3341.282,0.38160512
3342.89,0.38187137
3344.499,0.38215598
3346.11,0.38243036
3347.722,0.38269255
3349.336,0.38291147
3350.952,0.38295956
3352.569,0.3827372
3354.187,0.38231732
3355.807,0.38185809
3357.429,0.3814714
3359.052,0.38125538
3360.677,0.38129143
3362.303,0.38148261
3363.931,0.3815569
3365.56,0.38132955
3367.191,0.3808323
3368.824,0.38015811
3370.458,0.37938145
3372.093,0.37863802
3373.731,0.37806466
3375.37,0.37765801
3377.01,0.37737051
3378.652,0.3772835
3380.296,0.37749551
3381.941,0.37794509
3383.588,0.37853721
3385.236,0.37929207
3386.886,0.38019391
3388.538,0.38105862
3390.191,0.38174177
3391.846,0.38231413
3393.502,0.38288418
3395.16,0.38339832
3396.82,0.3837276
3398.481,0.38380822
3400.144,0.38364885
3401.809,0.38332876
3403.475,0.38299056
3405.143,0.38268122
3406.812,0.38224914
3408.483,0.38154109
3410.156,0.38065985
3411.83,0.37988155
3413.506,0.37939027
3415.183,0.37922484
3416.862,0.37941949
3418.543,0.38004719
3420.226,0.38113855
3421.91,0.38262579
3423.596,0.38434497
3425.283,0.38607954
3426.972,0.38768734
3428.663,0.38921416
3430.355,0.39081614
3432.049,0.39255525
3433.745,0.39436142
3435.442,0.39618073
3437.141,0.39804125
3438.842,0.39993629
3440.545,0.40172474
3442.249,0.40319584
3443.954,0.4042051
3445.662,0.40476454
3447.371,0.40506952
3449.082,0.40540921
3450.794,0.40596159
3452.509,0.40667439
3454.224,0.40740046
3455.942,0.40808455
3457.661,0.40875806
3459.382,0.40944098
3461.105,0.41014308
3462.829,0.41086701
3464.556,0.41152328
3466.283,0.41195874
3468.013,0.41213327
3469.744,0.41215594
3471.477,0.41211767
3473.212,0.41203575
3474.948,0.41196912
3476.686,0.41199199
3478.426,0.41205952
3480.168,0.41207748
3481.911,0.41208765
3483.656,0.41223077
3485.403,0.41259769
3487.152,0.41322109
3488.902,0.41406059
3490.654,0.41486681
3492.408,0.41526687
3494.164,0.41513429
3495.921,0.41471248
3497.68,0.41430358
3499.441,0.41405174
3501.204,0.4140638
3502.968,0.4144769
3504.734,0.41533193
3506.502,0.41655368
3508.272,0.41806336
3510.043,0.41975699
3511.817,0.42145844
3513.592,0.42305582
3515.368,0.42459136
3517.147,0.42611768
3518.927,0.42759552
3520.71,0.42899403
3522.494,0.43030975
3524.28,0.43147116
3526.067,0.43242623
3527.857,0.4333362
3529.648,0.43446058
3531.441,0.43583708
3533.236,0.43722411
3535.032,0.43833569
3536.831,0.43901999
3538.631,0.43931123
3540.433,0.4394297
3542.237,0.43964025
3544.043,0.4400369
3545.851,0.44055155
3547.66,0.4411437
3549.471,0.44182969
3551.284,0.44254439
3553.099,0.4431648
3554.916,0.44366308
3556.735,0.44410535
3558.555,0.4445354
3560.378,0.44498395
3562.202,0.44550915
3564.028,0.44611497
3565.856,0.44671355
3567.686,0.44725712
3569.518,0.4477906
3571.351,0.44830812
3573.187,0.44871218
3575.024,0.4489733
3576.863,0.44920013
3578.704,0.44950736
3580.547,0.44993728
3582.392,0.45050284
3584.239,0.45114831
3586.088,0.45169527
3587.938,0.45200661
3589.791,0.45219441
3591.645,0.45250448
3593.501,0.4530214
3595.359,0.45361289
3597.22,0.45410035
3599.082,0.45437042
3600.946,0.45441622
3602.811,0.45438126
3604.679,0.45447788
3606.549,0.45478156
3608.421,0.45520692
3610.294,0.4556993
3612.17,0.45628454
3614.047,0.45691685
3615.926,0.45744623
3617.808,0.45778128
3619.691,0.45796115
3621.576,0.45807196
3623.463,0.45819974
3625.353,0.45842622
3627.244,0.45878111
3629.137,0.4592264
3631.032,0.45971596
3632.929,0.46020287
3634.828,0.46062428
3636.729,0.46096093
3638.632,0.46128451
3640.537,0.46166133
3642.444,0.46207911
3644.353,0.46252732
3646.263,0.46303752
3648.176,0.46358273
3650.091,0.4640614
3652.008,0.46440591
3653.927,0.46460937
3655.848,0.46468351
3657.771,0.46471034
3659.696,0.46484812
3661.623,0.46515697
3663.552,0.46553225
3665.483,0.4658922
3667.416,0.46627377
3669.351,0.46668822
3671.288,0.46707672
3673.227,0.4674611
3675.168,0.46793303
3677.111,0.46848082
3679.057,0.46901276
3681.004,0.4695168
3682.953,0.47000168
3684.905,0.47036363
3686.858,0.47050606
3688.814,0.47052484
3690.771,0.47060578
3692.731,0.47082225
3694.693,0.47114528
3696.656,0.47154276
3698.622,0.47196687
3700.59,0.47235444
3702.56,0.47270307
3704.532,0.47306525
3706.507,0.47343289
3708.483,0.47372941
3710.461,0.47393681
3712.442,0.47414243
3714.425,0.47442145
3716.409,0.47474803
3718.396,0.47505897
3720.385,0.47534255
3722.376,0.47559958
3724.37,0.47579891
3726.365,0.4759592
3728.362,0.47620555
3730.362,0.47661412
3732.364,0.47709149
3734.368,0.47751153
3736.374,0.47788954
3738.382,0.47828712
3740.392,0.47869571
3742.405,0.47911535
3744.419,0.47958833
3746.436,0.48006245
3748.455,0.48042329
3750.476,0.48070494
3752.499,0.4810302
3754.525,0.48135377
3756.553,0.48156156
3758.582,0.48174323
3760.614,0.48206717
3762.649,0.48249068
3764.685,0.48288611
3766.724,0.48327314
3768.764,0.48367333
3770.807,0.4839692
3772.853,0.48413009
3774.9,0.48429634
3776.95,0.48451224
3779.001,0.48468766
3781.056,0.48486977
3783.112,0.48518751
3785.17,0.48556085
3787.231,0.48583115
3789.294,0.48606486
3791.359,0.48638216
3793.427,0.48668851
3795.496,0.48688336
3797.568,0.48708017
3799.643,0.48735368
3801.719,0.48758301
3803.798,0.48772909
3805.879,0.48794013
3807.962,0.4882565
3810.048,0.48856605
3812.135,0.48888213
3814.225,0.4893237
3816.318,0.48984612
3818.412,0.49030217
3820.509,0.49067359
3822.609,0.4909933
3824.71,0.49120086
3826.814,0.491308
3828.92,0.49150297
3831.029,0.4918975
3833.139,0.4923635
3835.252,0.49275203
3837.368,0.49307424
3839.486,0.49338861
3841.606,0.49369397
3843.728,0.49397822
3845.853,0.49424513
3847.98,0.49448539
3850.109,0.49471414
3852.241,0.49500053
3854.375,0.49539236
3856.512,0.49585325
3858.65,0.49630134
3860.792,0.4966831
3862.935,0.49700082
3865.081,0.49729827
3867.229,0.49760918
3869.38,0.49792639
3871.533,0.49824457
3873.689,0.49858949
3875.846,0.49895567
3878.007,0.49928758
3880.169,0.49958303
3882.334,0.49992738
3884.502,0.50034395
3886.672,0.50073954
3888.844,0.50105618
3891.019,0.50136126
3893.196,0.50171805
3895.375,0.5021001
3897.557,0.50247893
3899.742,0.50285139
3901.929,0.50314429
3904.118,0.50326632
3906.31,0.50328795
3908.504,0.50338443
3910.7,0.50358107
3912.9,0.50375661
3915.101,0.5038921
3917.305,0.50408992
3919.512,0.50435388
3921.721,0.50459704
3923.932,0.50485806
3926.146,0.505245
3928.363,0.50569482
3930.581,0.50605415
3932.803,0.50634069
3935.027,0.50666996
3937.253,0.50701868
3939.482,0.50732936
3941.714,0.50769311
3943.948,0.50817436
3946.184,0.5086225
3948.423,0.50890594
3950.665,0.50911844
3952.909,0.50936731
3955.156,0.5095971
3957.405,0.50980983
3959.657,0.51015347
3961.911,0.51064506
3964.168,0.51109131
3966.427,0.51140878
3968.689,0.51173923
3970.954,0.51218744
3973.221,0.51269848
3975.491,0.51321898
3977.763,0.51373617
3980.038,0.51418651
3982.315,0.51451893
3984.595,0.51480898
3986.878,0.51515243
3989.163,0.51551943
3991.451,0.51582067
3993.742,0.51604396
3996.035,0.51624524
3998.33,0.51647202
4000.629,0.51673501
4002.93,0.51701473
4005.233,0.51729272
4007.54,0.51756709
4009.849,0.51780992
4012.16,0.51796546
4014.475,0.51805876
4016.791,0.51820738
4019.111,0.51845882
4021.433,0.51874182
4023.758,0.51901517
4026.086,0.51931151
4028.416,0.51961233
4030.749,0.51986442
4033.085,0.52011233
4035.423,0.52042169
4037.764,0.52071159
4040.108,0.52088289
4042.454,0.52103161
4044.804,0.5213215
4047.155,0.52172899
4049.51,0.52213596
4051.867,0.522544
4054.228,0.52299895
4056.59,0.52341662
4058.956,0.52369557
4061.324,0.52390078
4063.695,0.52415317
4066.069,0.52443739
4068.446,0.5246917
4070.825,0.52497292
4073.207,0.52535589
4075.592,0.52576401
4077.98,0.52610715
4080.371,0.52647851
4082.764,0.52700694
4085.16,0.52760476
4087.559,0.52810593
4089.961,0.52853902
4092.365,0.52900413
4094.773,0.52942302
4097.183,0.52970922
4099.596,0.53001095
4102.012,0.53045661
4104.43,0.53089336
4106.852,0.53119342
4109.276,0.53153082
4111.703,0.53204705
4114.133,0.53260395
4116.566,0.53313139
4119.002,0.53379695
4121.441,0.53458885
4123.882,0.53522665
4126.327,0.53566434
4128.774,0.53616144
4131.224,0.53675902
4133.677,0.53723598
4136.133,0.53760788
4138.592,0.53811104
4141.054,0.53876066
4143.519,0.53940905
4145.987,0.54008174
4148.457,0.54081252
4150.931,0.5414195
4153.407,0.54180143
4155.887,0.54214041
4158.369,0.54256117
4160.854,0.54295675
4163.343,0.54329066
4165.834,0.54367374
4168.328,0.54410782
4170.826,0.54451566
4173.326,0.54495297
4175.829,0.54547571
4178.335,0.54599054
4180.844,0.54646911
4183.356,0.54703721
4185.872,0.54771633
4188.39,0.54841982
4190.911,0.54922926
4193.435,0.55033109
4195.963,0.55178183
4198.493,0.55367016
4201.026,0.55626098
4203.563,0.55963756
4206.102,0.5635347
4208.645,0.56782475
4211.19,0.57267571
4213.739,0.57794868
4216.291,0.5830702
4218.846,0.58780083
4221.404,0.59235924
4223.965,0.59667469
4226.529,0.6004771
4229.096,0.60402381
4231.666,0.60752296
4234.24,0.61026847
4236.816,0.61157638
4239.396,0.61191607
4241.979,0.61180986
4244.565,0.61063228
4247.154,0.60751186
4249.746,0.6025873
4252.341,0.59689187
4254.94,0.59199364
4257.542,0.58968495
4260.146,0.59108562
4262.754,0.5957115
4265.366,0.60157665
4267.98,0.60653455
4270.598,0.60959147
4273.219,0.61088219
4275.843,0.61108038
4278.47,0.6111037
4281.1,0.61156291
4283.734,0.61235068
4286.371,0.61312022
4289.011,0.61380536
4291.655,0.61427762
4294.301,0.61417024
4296.951,0.61349809
4299.604,0.61287143
4302.261,0.61267915
4304.92,0.61261645
4307.583,0.61223217
4310.25,0.61145163
4312.919,0.61038644
4315.592,0.60916679
4318.268,0.60806562
4320.948,0.60734088
4323.631,0.60687583
4326.317,0.60634578
4329.006,0.60568322
4331.699,0.60503743
4334.395,0.60440495
4337.095,0.60369897
4339.797,0.60305288
4342.504,0.60268192
4345.213,0.60258445
4347.926,0.60270079
4350.642,0.60309336
4353.362,0.60368087
4356.085,0.60413918
4358.811,0.60437
4361.541,0.60467889
4364.275,0.6052639
4367.011,0.60598628
4369.751,0.60679858
4372.495,0.607806
4375.242,0.60884697
4377.992,0.60965342
4380.746,0.6103999
4383.504,0.61142813
4386.264,0.61260112
4389.029,0.6136282
4391.796,0.61469279
4394.567,0.61601088
4397.342,0.6172483
4400.12,0.61813581
4402.902,0.61904692
4405.687,0.6202732
4408.476,0.62146535
4411.268,0.62242444
4414.064,0.62352794
4416.863,0.62487845
4419.666,0.62602622
4422.472,0.62688781
4425.282,0.62786251
4428.096,0.62889875
4430.913,0.6296016
4433.734,0.63022123
4436.558,0.63130888
4439.386,0.6326018
4442.217,0.63342592
4445.052,0.63389253
4447.891,0.63453923
4450.733,0.63531934
4453.579,0.63595796
4456.428,0.63669608
4459.281,0.63774382
4462.138,0.63869402
4464.998,0.63926208
4467.863,0.63988711
4470.73,0.64093435
4473.602,0.64207308
4476.477,0.64292292
4479.355,0.64360463
4482.238,0.64425901
4485.124,0.64475005
4488.014,0.64509022
4490.908,0.6455855
4493.805,0.64634722
4496.706,0.64711973
4499.611,0.64774086
4502.519,0.64837945
4505.431,0.64917936
4508.347,0.6499573
4511.267,0.65048128
4514.191,0.65083972
4517.118,0.65128631
4520.049,0.65180566
4522.984,0.65220355
4525.923,0.65255
4528.865,0.65305827
4531.812,0.6535743
4534.762,0.6537796
4537.716,0.65385355
4540.674,0.65422265
4543.635,0.65477879
4546.601,0.65509974
4549.57,0.65529786
4552.543,0.65576728
4555.521,0.65636883
4558.502,0.65674929
4561.487,0.65711347
4564.475,0.65771468
4567.468,0.6580865
4570.465,0.65781186
4573.465,0.65752172
4576.47,0.65793523
4579.478,0.65867704
4582.491,0.65916106
4585.507,0.65960283
4588.527,0.66019473
4591.551,0.66045557
4594.58,0.66030249
4597.612,0.66055081
4600.648,0.66151389
4603.688,0.66236007
4606.732,0.662515
4609.781,0.66243386
4612.833,0.66243278
4615.889,0.66219962
4618.949,0.66186911
4622.014,0.66214659
4625.082,0.66291478
4628.155,0.66326933
4631.231,0.66314896
4634.312,0.66340519
4637.397,0.66405736
4640.485,0.66431652
4643.578,0.66423573
4646.675,0.66454187
4649.777,0.66516241
4652.882,0.66543619
4655.991,0.66558716
4659.105,0.66638464
4662.223,0.66761427
4665.345,0.66855642
4668.471,0.66946005
4671.601,0.6708954
4674.735,0.6724575
4677.874,0.67352062
4681.017,0.67434616
4684.164,0.67512549
4687.315,0.67524953
4690.471,0.67469463
4693.63,0.67468531
4696.794,0.67588226
4699.962,0.6774366
4703.135,0.67860325
4706.312,0.67972253
4709.493,0.68096667
4712.678,0.68179315
4715.868,0.68215257
4719.062,0.68270881
4722.26,0.68359904
4725.463,0.6843446
4728.669,0.68493103
4731.881,0.68569137
4735.096,0.68642513
4738.316,0.68673357
4741.541,0.68684751
4744.769,0.68722248
4748.002,0.68784122
4751.24,0.68851405
4754.482,0.68929937
4757.728,0.69017863
4760.979,0.69089711
4764.234,0.69139773
4767.494,0.69192945
4770.758,0.69261458
4774.026,0.69335021
4777.299,0.69404837
4780.577,0.6946902
4783.859,0.69526724
4787.145,0.69583239
4790.436,0.69640805
4793.732,0.69689469
4797.032,0.69727415
4800.336,0.6977276
4803.645,0.69835626
4806.959,0.6990762
4810.277,0.6999413
4813.6,0.70112573
4816.927,0.70241305
4820.259,0.70325993
4823.596,0.70352605
4826.937,0.70360006
4830.283,0.70379883
4833.633,0.70423639
4836.988,0.70508925
4840.348,0.70633568
4843.712,0.70749917
4847.081,0.70829388
4850.455,0.7091192
4853.833,0.71034032
4857.216,0.71160465
4860.604,0.71246631
4863.996,0.71314007
4867.393,0.71400222
4870.795,0.71487448
4874.202,0.71544853
4877.613,0.71593812
4881.03,0.71669358
4884.451,0.7176665
4887.876,0.71878651
4891.307,0.72023998
4894.742,0.72191092
4898.182,0.72319791
4901.627,0.72390583
4905.077,0.72465878
4908.532,0.72576672
4911.991,0.72662072
4915.456,0.72688456
4918.925,0.72720646
4922.399,0.72809296
4925.878,0.72923171
4929.362,0.73037673
4932.851,0.73166513
4936.345,0.73279877
4939.844,0.73326358
4943.347,0.73352574
4946.856,0.7345567
4950.37,0.73621256
4953.888,0.737465
4957.412,0.7380287
4960.941,0.73841038
4964.474,0.73876246
4968.013,0.73900415
4971.556,0.73952349
4975.105,0.74055409
4978.659,0.74139707
4982.218,0.74145251
4985.782,0.74133267
4989.351,0.74178224
4992.925,0.74248494
4996.504,0.74295521
5000.088,0.74348766
5003.678,0.7443521
5007.272,0.74524201
5010.872,0.7461177
5014.477,0.74737505
5018.087,0.74873577
5021.703,0.74929273
5025.323,0.74893748
5028.949,0.74850357
5032.58,0.74841525
5036.216,0.74841538
5039.857,0.74848677
5043.504,0.74888398
5047.156,0.74941163
5050.813,0.74967126
5054.475,0.7497911
5058.143,0.75010501
5061.816,0.7504698
5065.495,0.75064051
5069.179,0.75090979
5072.868,0.75170216
5076.562,0.75285992
5080.262,0.75385221
5083.967,0.75439853
5087.678,0.75454143
5091.394,0.75442177
5095.115,0.75428699
5098.842,0.75445145
5102.574,0.75499952
5106.312,0.75567851
5110.055,0.75621019
5113.804,0.75657955
5117.558,0.75693435
5121.318,0.75734093
5125.083,0.75778366
5128.854,0.75839304
5132.63,0.75951422
5136.412,0.76136542
5140.199,0.76366106
5143.992,0.76573451
5147.791,0.76702048
5151.595,0.76735662
5155.405,0.76701631
5159.22,0.76666633
5163.041,0.76702055
5166.868,0.76819832
5170.7,0.76964755
5174.538,0.7709237
5178.382,0.77217148
5182.231,0.77363219
5186.086,0.77527917
5189.947,0.77719015
5193.814,0.77956377
5197.686,0.7821237
5201.564,0.78430336
5205.448,0.78609315
5209.338,0.78776006
5213.233,0.78881358
5217.134,0.78856591
5221.041,0.78764747
5224.954,0.78752106
5228.873,0.78862063
5232.798,0.79019422
5236.728,0.79164117
5240.665,0.7928371
5244.607,0.79356305
5248.555,0.79379581
5252.51,0.79415375
5256.47,0.79506916
5260.436,0.79617018
5264.408,0.79718934
5268.386,0.79852053
5272.37,0.80022926
5276.36,0.80172278
5280.356,0.80294865
5284.358,0.80456779
5288.367,0.80646021
5292.381,0.80752823
5296.401,0.80743782
5300.428,0.80710613
5304.46,0.80715777
5308.499,0.80738949
5312.544,0.8077784
5316.595,0.80860808
5320.652,0.80959384
5324.715,0.81015626
5328.785,0.8105409
5332.86,0.81163271
5336.942,0.81386142
5341.031,0.81700067
5345.125,0.82045867
5349.226,0.82304328
5353.333,0.82336506
5357.446,0.82148993
5361.566,0.81927199
5365.692,0.81829748
5369.824,0.81848022
5373.962,0.81896509
5378.107,0.81942943
5382.259,0.81992537
5386.417,0.82031637
5390.581,0.82058373
5394.751,0.82110701
5398.928,0.82212944
5403.112,0.82359796
5407.302,0.82577838
5411.498,0.8291263
5415.701,0.83302866
5419.911,0.8355777
5424.127,0.83548796
5428.349,0.83360235
5432.579,0.83162966
5436.814,0.83048342
5441.057,0.83045512
5445.305,0.83174928
5449.561,0.8342566
5453.823,0.83764939
5458.092,0.84187431
5462.368,0.84662115
5466.65,0.85053766
5470.939,0.85259951
5475.234,0.85384544
5479.537,0.85571255
5483.846,0.85758339
5488.162,0.8582069
5492.484,0.85833541
5496.814,0.8596641
5501.15,0.86285203
5505.493,0.86848155
5509.843,0.87768833
5514.2,0.89006418
5518.564,0.90301584
5522.934,0.91449142
5527.312,0.92463468
5531.696,0.93492809
5536.087,0.94778
5540.486,0.96403191
5544.891,0.97507447
5549.303,0.96151672
5553.723,0.90962085
5558.149,0.85024282
5562.582,0.77663155
5567.023,0.7165738
5571.47,0.67621103
5575.925,0.65429152
5580.387,0.66568359
5584.856,0.69398081
5589.332,0.71464112
5593.815,0.72671029
5598.305,0.73709044
5602.803,0.745286
5607.307,0.7486961
5611.819,0.75275458
5616.339,0.76093744
5620.865,0.76836937
5625.399,0.77167902
5629.94,0.77566441
5634.489,0.78264365
5639.044,0.78749832
5643.607,0.78757135
5648.178,0.78807028
5652.756,0.79084828
5657.341,0.79203556
5661.934,0.79173722
5666.534,0.79464513
5671.142,0.80013939
5675.757,0.8027373
5680.379,0.80229491
5685.01,0.80351697
5689.647,0.80613246
5694.293,0.80654262
5698.945,0.80659761
5703.606,0.81037364
5708.274,0.81564874
5712.949,0.81731078
5717.633,0.81687788
5722.324,0.81835693
5727.022,0.82015333
5731.729,0.81954217
5736.443,0.81945067
5741.165,0.82249333
5745.894,0.82542331
5750.631,0.82589237
5755.377,0.82806205
5760.13,0.83408796
5764.89,0.83853491
5769.659,0.83777473
5774.436,0.83645507
5779.22,0.83689678
5784.012,0.83551874
5788.813,0.83221427
5793.621,0.83191759
5798.437,0.83527415
5803.262,0.83797806
5808.094,0.84002551
5812.934,0.84521068
5817.782,0.85150228
5822.639,0.85263847
5827.503,0.8501087
5832.376,0.84942623
5837.257,0.84952856
5842.146,0.84760023
5847.043,0.84713343
5851.948,0.85115849
5856.862,0.85558553
5861.783,0.85652057
5866.714,0.85792975
5871.652,0.8626004
5876.598,0.86606768
5881.553,0.86546707
5886.517,0.86529434
5891.488,0.86644696
5896.468,0.8642952
5901.457,0.8597403
5906.454,0.85864575
5911.459,0.86082861
5916.473,0.86197138
5921.495,0.86300497
5926.526,0.86764847
5931.565,0.87282168
5936.613,0.87233753
5941.67,0.8686802
5946.735,0.86734277
5951.809,0.86719441
5956.891,0.8660663
5961.982,0.86648516
5967.082,0.86955268
5972.19,0.87135364
5977.307,0.87040302
5982.433,0.87044474
5987.568,0.87193993
5992.711,0.87106541
5997.864,0.86845919
6003.025,0.86845588
6008.195,0.87039851
6013.374,0.86994757
6018.562,0.86779547
6023.759,0.86815122
6028.964,0.87129141
6034.179,0.87478284
6039.403,0.87846825
6044.636,0.8820849
6049.878,0.88266655
6055.129,0.88036811
6060.389,0.87976523
6065.658,0.881651
6070.936,0.88201111
6076.224,0.879297
6081.52,0.87688354
6086.826,0.87679109
6092.141,0.87802363
6097.466,0.8803638
6102.8,0.8840566
6108.143,0.88669078
6113.495,0.88574239
6118.857,0.88313158
6124.228,0.88189939
6129.609,0.8820098
6134.999,0.88258194
6140.398,0.884105
6145.807,0.8864386
6151.226,0.88791234
6156.654,0.88813626
6162.091,0.88862491
6167.539,0.88992801
6172.996,0.89114242
6178.462,0.8919407
6183.938,0.89252328
6189.424,0.89247144
6194.92,0.89183753
6200.425,0.89189472
6205.94,0.89309566
6211.465,0.8942499
6217.0,0.89463358
6222.544,0.89515146
6228.099,0.89626166
6233.663,0.89705309
6239.237,0.89713167
6244.822,0.89739454
6250.416,0.89820653
6256.02,0.89901187
6261.635,0.89985562
6267.259,0.90130486
6272.893,0.90273615
6278.538,0.90298194
6284.193,0.9024142
6289.858,0.90237284
6295.533,0.90294072
6301.218,0.90348699
6306.914,0.904384
6312.619,0.90612288
6318.336,0.90791347
6324.062,0.90921942
6329.799,0.91087551
6335.546,0.9129111
6341.304,0.91356967
6347.072,0.91283061
6352.851,0.91324271
6358.64,0.91546345
6364.44,0.91707253
6370.25,0.91674298
6376.071,0.91594266
6381.903,0.91564124
6387.745,0.91568739
6393.598,0.91724677
6399.461,0.92145835
6405.335,0.92582999
6411.221,0.92650345
6417.116,0.92455252
6423.023,0.92318916
6428.941,0.9221528
6434.869,0.92069882
6440.809,0.92039966
6446.759,0.9217018
6452.72,0.92257779
6458.693,0.92278459
6464.676,0.92468086
6470.671,0.92828195
6476.676,0.930538
6482.693,0.93057056
6488.721,0.93030992
6494.76,0.92971712
6500.81,0.92798877
6506.872,0.92716854
6512.945,0.92859373
6519.029,0.92993264
6525.124,0.92938698
6531.231,0.92903374
6537.35,0.93034713
6543.48,0.93159759
6549.621,0.93201503
6555.774,0.93338214
6561.938,0.93563105
6568.114,0.93639834
6574.302,0.93600071
6580.501,0.93659277
6586.712,0.93736944
6592.934,0.93651658
6599.169,0.93556884
6605.415,0.93668442
6611.673,0.93889872
6617.943,0.94047152
6624.224,0.94173819
6630.518,0.94249166
6636.823,0.94091687
6643.141,0.93800813
6649.47,0.93714337
6655.812,0.93861652
6662.166,0.93992084
6668.532,0.94011782
6674.91,0.94037282
6681.3,0.94075259
6687.702,0.94062642
6694.117,0.94108593
6700.544,0.94298656
6706.983,0.94455531
6713.435,0.94410814
6719.899,0.94297908
6726.375,0.94271434
6732.864,0.94265545
6739.365,0.94233966
6745.879,0.9428458
6752.406,0.94439075
6758.945,0.94564811
6765.497,0.94631799
6772.062,0.94731442
6778.639,0.94815868
6785.229,0.9474402
6791.832,0.94593137
6798.448,0.94552378
6805.076,0.94612391
6811.718,0.94659621
6818.372,0.94707362
6825.039,0.94805799
6831.72,0.94899305
6838.413,0.9496268
6845.12,0.95078026
6851.84,0.95228966
6858.573,0.95244326
6865.319,0.95105933
6872.078,0.95004026
6878.851,0.95003892
6885.637,0.95012607
6892.437,0.95014514
6899.25,0.95060456
6906.076,0.95096525
6912.916,0.95050138
6919.769,0.95006895
6926.636,0.95069213
6933.517,0.95182681
6940.411,0.95263755
6947.319,0.95338274
6954.241,0.95414064
6961.176,0.95421491
6968.125,0.95386835
6975.089,0.95422784
6982.066,0.95516519
6989.057,0.95562672
6996.062,0.95571199
7003.081,0.95625951
7010.114,0.95702557
7017.161,0.95741526
7024.223,0.95794189
7031.298,0.95906297
7038.388,0.95991556
7045.492,0.95989692
7052.611,0.95982529
7059.743,0.9601625
7066.891,0.96026993
7074.052,0.96003578
7081.229,0.96020077
7088.419,0.96083304
7095.625,0.96129497
7102.845,0.96163737
7110.079,0.96235198
7117.329,0.96316066
7124.593,0.96356627
7131.872,0.96391693
7139.166,0.96465319
7146.475,0.96533617
7153.799,0.96545079
7161.137,0.96530088
7168.491,0.96535126
7175.86,0.96554821
7183.244,0.96579615
7190.643,0.96625963
7198.058,0.96691118
7205.487,0.96739649
7212.933,0.96756458
7220.393,0.96770353
7227.869,0.96808923
7235.36,0.96864272
7242.867,0.96915747
7250.39,0.96966213
7257.928,0.9702672
7265.481,0.97080136
7273.051,0.97102724
7280.636,0.9711464
7288.237,0.97151607
7295.854,0.97202314
7303.487,0.97238569
7311.135,0.97279097
7318.8,0.97348261
7326.481,0.97410635
7334.178,0.97428371
7341.891,0.97433983
7349.62,0.97463404
7357.366,0.97494268
7365.128,0.97513093
7372.906,0.97554344
7380.701,0.97620867
7388.512,0.97668478
7396.34,0.97696308
7404.184,0.97748758
7412.045,0.97817423
7419.922,0.97856378
7427.817,0.97876531
7435.728,0.97921923
7443.656,0.97983732
7451.601,0.98030993
7459.562,0.98072167
7467.541,0.98117737
7475.537,0.98143411
7483.55,0.98144473
7491.58,0.9815276
7499.628,0.98177547
7507.692,0.98197473
7515.774,0.98212158
7523.874,0.9823892
7531.99,0.98273202
7540.125,0.98303717
7548.277,0.98336237
7556.446,0.98371975
7564.633,0.98400632
7572.838,0.98425638
7581.061,0.98453838
7589.302,0.98472727
7597.56,0.98476922
7605.837,0.98487141
7614.131,0.98510065
7622.444,0.98525045
7630.774,0.98528936
7639.123,0.9853998
7647.491,0.98554963
7655.876,0.9856161
7664.28,0.98577239
7672.702,0.98616952
7681.143,0.98655276
7689.602,0.98671771
7698.08,0.98688596
7706.577,0.98719572
7715.093,0.98742878
7723.627,0.98753207
7732.18,0.98777343
7740.752,0.98817876
7749.343,0.98849924
7757.953,0.98873543
7766.583,0.98908738
7775.231,0.98947691
7783.899,0.98972162
7792.586,0.98995201
7801.292,0.99036393
7810.018,0.99084888
7818.764,0.99127122
7827.529,0.99174029
7836.313,0.99231673
7845.117,0.99282176
7853.942,0.99315855
7862.786,0.99347311
7871.649,0.99388265
7880.533,0.99433417
7889.437,0.99478723
7898.361,0.99524881
7907.305,0.99565821
7916.27,0.99594193
7925.254,0.99616657
7934.26,0.99644496
7943.285,0.99679115
7952.331,0.99716489
7961.398,0.99759323
7970.485,0.99809783
7979.594,0.99860558
7988.723,0.9990264
7997.872,0.99937414
8007.043,0.99971441
8016.235,0.0100007267
8025.448,0.0100043875
8034.682,0.0100081867
8043.937,0.0100119229
8053.214,0.010015196
8062.512,0.0100181132
8071.832,0.0100209006
8081.173,0.0100231379
8090.535,0.0100245791
8099.92,0.0100263845
8109.326,0.0100296412
8118.754,0.0100335595
8128.204,0.010036928
8137.676,0.0100400419
8147.169,0.0100433209
8156.686,0.0100460848
8166.224,0.0100484064
8175.785,0.0100517623
8185.368,0.0100562012
8194.973,0.0100599314
8204.601,0.0100626041
8214.252,0.0100656582
8223.925,0.0100690537
8233.621,0.0100714739
8243.34,0.0100735783
8253.082,0.0100772119
8262.847,0.0100820335
8272.635,0.0100863839
8282.446,0.0100903692
8292.281,0.0100947108
8302.139,0.0100986626
8312.02,0.0101015851
8321.925,0.0101047208
8331.853,0.0101088399
8341.805,0.0101126011
8351.781,0.0101150386
8361.781,0.0101173943
8371.804,0.0101208824
8381.852,0.0101247257
8391.924,0.010127731
8402.02,0.0101302119
8412.14,0.0101329003
8422.285,0.010135354
8432.454,0.0101369537
8442.648,0.0101385555
8452.866,0.0101412625
8463.109,0.0101444877
8473.377,0.0101470393
8483.67,0.010149383
8493.988,0.0101522118
8504.331,0.0101543253
8514.699,0.010154779
8525.092,0.0101554718
8535.511,0.0101580534
8545.955,0.0101608242
8556.425,0.0101621165
8566.921,0.0101634374
8577.442,0.0101659421
8587.989,0.0101679171
8598.562,0.0101685812
8609.161,0.0101698661
8619.786,0.0101721533
8630.437,0.0101736
8641.115,0.0101744146
8651.819,0.010176709
8662.55,0.0101799503
8673.307,0.0101821285
8684.091,0.0101840868
8694.902,0.010187656
8705.739,0.0101918542
8716.604,0.010195012
8727.496,0.0101977342
8738.415,0.0102005516
8749.361,0.0102024089
8760.335,0.010203344
8771.336,0.0102049972
8782.365,0.0102079357
8793.422,0.0102115531
8804.507,0.0102157915
8815.619,0.0102204185
8826.76,0.0102246906
8837.928,0.0102289727
8849.125,0.0102338859
8860.351,0.0102381865
8871.604,0.0102408384
8882.887,0.010243396
8894.198,0.0102469794
8905.538,0.0102501575
8916.907,0.0102525395
8928.305,0.0102557384
8939.732,0.0102591422
8951.188,0.0102604908
8962.673,0.0102609914
8974.189,0.0102630283
8985.733,0.0102648462
8997.308,0.0102641188
9008.912,0.0102633071
9020.546,0.0102645626
9032.21,0.0102650597
9043.905,0.0102630804
9055.629,0.0102620554
9067.384,0.0102634204
9079.17,0.0102638215
9090.986,0.0102622627
9102.833,0.0102615868
9114.711,0.0102611695
9126.62,0.0102576325
9138.56,0.0102521491
9150.531,0.0102485374
9162.534,0.0102460009
9174.568,0.0102420105
9186.634,0.0102383608
9198.731,0.0102374142
9210.86,0.0102369023
9223.022,0.0102346165
9235.215,0.0102327697
9247.441,0.010233086
9259.699,0.010233233
9271.99,0.0102316735
9284.313,0.0102302755
9296.669,0.0102301917
9309.058,0.0102300052
9321.48,0.0102292685
9333.935,0.0102293154
9346.423,0.0102301821
9358.945,0.0102304903
9371.5,0.01023043
9384.089,0.0102315456
9396.712,0.0102338957
9409.369,0.0102359095
9422.06,0.0102370068
9434.785,0.0102380389
9447.545,0.0102395078
9460.339,0.0102410782
9473.167,0.0102430039
9486.031,0.0102458347
9498.929,0.0102489277
9511.863,0.0102509662
9524.832,0.0102520618
9537.836,0.0102534375
9550.876,0.0102554165
9563.951,0.0102572827
9577.062,0.0102589051
9590.209,0.0102603803
9603.393,0.0102611655
9616.612,0.0102611409
9629.868,0.0102614316
9643.16,0.0102628264
9656.49,0.0102648924
9669.856,0.01026717
9683.259,0.0102696492
9696.699,0.0102716455
9710.176,0.0102723133
9723.691,0.0102720192
9737.244,0.0102716868
9750.834,0.010271244
9764.463,0.0102703954
9778.129,0.0102694845
9791.834,0.0102686595
9805.577,0.0102675078
9819.359,0.0102665069
9833.18,0.010266488
9847.039,0.0102670767
9860.938,0.0102672308
9874.875,0.0102673159
9888.853,0.0102681982
9902.869,0.0102694995
9916.926,0.0102702272
9931.022,0.0102704537
9945.159,0.0102705611
9959.336,0.0102703429
9973.553,0.0102699114
9987.811,0.0102702275
10002.109,0.0102715344
10016.449,0.0102728567
10030.83,0.0102734555
10045.252,0.0102738299
10059.715,0.0102745018
10074.221,0.0102752285
10088.768,0.0102759105
10103.357,0.0102772073
10117.988,0.0102793939
10132.662,0.0102818232
10147.378,0.0102839262
10162.137,0.0102859795
10176.939,0.0102882266
10191.784,0.0102903842
10206.672,0.0102925529
10221.604,0.0102953755
10236.58,0.0102985985
10251.6,0.0103010488
10266.663,0.0103024864
10281.771,0.0103039031
10296.924,0.0103055251
10312.121,0.0103067667
10327.363,0.0103078538
10342.65,0.0103095393
10357.982,0.0103114129
10373.36,0.0103126804
10388.784,0.0103136654
10404.253,0.0103149
10419.769,0.0103158413
10435.331,0.0103161231
10450.939,0.0103161268
10466.594,0.0103157324
10482.296,0.0103146186
10498.045,0.0103136802
10513.842,0.0103137552
10529.686,0.0103140884
10545.577,0.0103141553
10561.517,0.0103149917
10577.505,0.0103167118
10593.542,0.0103179635
10609.627,0.0103187111
10625.761,0.0103200316
10641.944,0.0103209742
10658.176,0.0103201761
10674.458,0.0103191096
10690.79,0.010319321
10707.172,0.0103191486
10723.604,0.0103176414
10740.086,0.010317082
10756.619,0.0103182095
10773.203,0.0103184228
10789.839,0.010317626
10806.525,0.0103183924
10823.264,0.0103198252
10840.054,0.0103189479
10856.896,0.0103174629
10873.791,0.0103186645
10890.738,0.010320707
10907.738,0.0103207737
10924.791,0.0103212599
10941.898,0.0103240505
10959.058,0.0103258765
10976.272,0.0103250942
10993.541,0.0103252907
11010.863,0.0103275888
11028.24,0.0103288019
11045.672,0.0103287764
11063.16,0.0103303377
11080.702,0.010332134
11098.301,0.0103312265
11115.955,0.010329847
11133.665,0.0103311012
11151.432,0.0103325333
11169.256,0.0103314428
11187.137,0.0103299096
11205.075,0.0103294927
11223.07,0.0103279748
11241.124,0.0103249448
11259.235,0.0103227982
11277.405,0.0103215806
11295.634,0.0103195779
11313.921,0.0103177445
11332.268,0.010317262
11350.675,0.0103162619
11369.141,0.0103134454
11387.667,0.0103106616
11406.254,0.0103088827
11424.901,0.0103067898
11443.61,0.0103042955
11462.38,0.0103025073
11481.211,0.0103006765
11500.105,0.0102978389
11519.06,0.0102952584
11538.079,0.0102938851
11557.16,0.0102923719
11576.304,0.0102902075
11595.511,0.0102886191
11614.783,0.010287522
11634.118,0.0102854024
11653.518,0.0102827507
11672.983,0.0102814594
11692.513,0.010281633
11712.108,0.010281843
11731.769,0.0102818561
11751.496,0.0102821005
11771.29,0.0102820949
11791.15,0.0102812808
11811.077,0.0102806479
11831.072,0.0102812499
11851.134,0.0102824921
11871.265,0.0102829088
11891.464,0.0102826681
11911.731,0.0102829397
11932.068,0.0102834451
11952.475,0.0102827918
11972.951,0.010281825
11993.497,0.0102827787
12014.114,0.0102853694
12034.802,0.0102870672
12055.562,0.0102879108
12076.393,0.0102895076
12097.296,0.0102906015
12118.271,0.0102889385
12139.32,0.0102864753
12160.441,0.0102858773
12181.636,0.0102853081
12202.905,0.0102827318
12224.249,0.0102810153
12245.667,0.0102819818
12267.16,0.0102820765
12288.729,0.0102794244
12310.373,0.0102776767
12332.094,0.0102781258
12353.892,0.0102769155
12375.767,0.0102731173
12397.719,0.010270346
12419.75,0.0102689236
12441.859,0.0102662174
12464.046,0.0102640427
12486.313,0.0102660128
12508.659,0.0102696651
12531.086,0.0102702577
12553.593,0.0102684128
12576.18,0.0102670453
12598.85,0.0102654256
12621.601,0.0102626205
12644.434,0.0102610588
12667.35,0.0102621284
12690.349,0.0102631374
12713.432,0.0102627912
12736.599,0.0102635048
12759.85,0.010266281
12783.187,0.0102686621
12806.608,0.0102695325
12830.116,0.0102705402
12853.71,0.0102722106
12877.391,0.0102731459
12901.159,0.0102735606
12925.016,0.0102751476
12948.96,0.0102778081
12972.993,0.0102800767
12997.116,0.0102823893
13021.329,0.0102858057
13045.631,0.0102891892
13070.025,0.0102908558
13094.51,0.0102917513
13119.087,0.010293158
13143.756,0.0102941716
13168.518,0.0102944484
13193.373,0.010296061
13218.322,0.0102991738
13243.366,0.0103012033
13268.505,0.0103019335
13293.74,0.0103040225
13319.07,0.0103068257
13344.497,0.010307402
13370.021,0.0103068278
13395.644,0.01030797
13421.364,0.0103088379
13447.183,0.0103072616
13473.102,0.0103065261
13499.121,0.010308521
13525.24,0.0103083208
13551.461,0.0103041766
13577.783,0.0103014378
13604.208,0.0103014448
13630.736,0.0102989092
13657.367,0.0102945975
13684.103,0.010294074
13710.943,0.0102944026
13737.889,0.0102883794
13764.941,0.0102800878
13792.099,0.0102772761
13819.365,0.0102765602
13846.739,0.0102725216
13874.221,0.0102702858
13901.813,0.0102728055
13929.515,0.0102723134
13957.327,0.0102660476
13985.25,0.0102628088
14013.285,0.0102642508
14041.433,0.0102623788
14069.694,0.0102582559
14098.068,0.0102601033
14126.558,0.0102638035
14155.163,0.0102602473
14183.883,0.0102541195
14212.721,0.0102534275
14241.676,0.0102524875
14270.749,0.0102465632
14299.94,0.0102440958
14329.252,0.0102485477
14358.684,0.0102494922
14388.237,0.0102442844
14417.911,0.0102418364
14447.709,0.0102419726
14477.629,0.0102364253
14507.674,0.0102299543
14537.844,0.0102310753
14568.139,0.0102331368
14598.561,0.0102276164
14629.109,0.01022267
14659.786,0.0102243081
14690.592,0.0102240448
14721.528,0.0102185418
14752.594,0.0102176642
14783.791,0.0102193256
14815.121,0.0102111587
14846.583,0.0101942587
14878.179,0.0101793771
14909.91,0.0101634378
14941.777,0.0101450902
14973.78,0.010138045
15005.92,0.0101480279
15038.198,0.0101535001
15070.616,0.0101451492
15103.173,0.0101340862
15135.871,0.0101275875
15168.712,0.0101120256
15201.695,0.0100889519
15234.821,0.0100635711
15268.092,0.0100365189
15301.509,0.99979447
15335.072,0.9959253
15368.783,0.99149756
15402.642,0.98655179
15436.651,0.98017916
15470.81,0.97505054
15505.12,0.96912766
15539.583,0.96309532
15574.199,0.95566213
15608.97,0.94940825
15643.896,0.93865704
15678.979,0.92639033
15714.22,0.91051892
15749.619,0.89616967
15785.178,0.87796168
15820.897,0.85944664
15856.779,0.84250161
15892.824,0.83155601
15929.033,0.81624371
15965.407,0.79506644
