Database of Origin,University of Winnipeg Spectrophotometer Facility
Sample Description,16.11. Meteorites - HEDs 16.11.3. NASA samples (4) Bruker Vertex 70 FTIR spectrometer
Other Information,MIR Glowbar KBr Beam Splitter MCT cryo cooled Dectect.
Date Added,2018-07-23 23:49:05.615071

Data ID,FTIR_MET2_6_23      
Sample ID,NWA 2968
Mineral Name,Dunitic diogenite
Grain Size,250-500 um
Viewing Geometry,i30/ e0
Resolution,7.71cm-1

Wavelength
1672.316177,0.29024
1674.476792,0.29086
1676.642997,0.28974
1678.814814,0.28838
1680.992268,0.28824
1683.175374,0.28842
1685.364158,0.288
1687.558643,0.28755
1689.758849,0.28735
1691.9648,0.28685
1694.176519,0.28632
1696.394027,0.28619
1698.61735,0.28581
1700.846507,0.28567
1703.081521,0.28609
1705.322418,0.28618
1707.569219,0.28585
1709.821949,0.28558
1712.08063,0.28556
1714.345286,0.28513
1716.615945,0.28449
1718.892624,0.28438
1721.175349,0.28444
1723.464146,0.28422
1725.759038,0.2842
1728.060049,0.28422
1730.367205,0.284
1732.68053,0.28396
1735.000051,0.28387
1737.325788,0.28328
1739.657769,0.28252
1741.996018,0.28197
1744.340562,0.28167
1746.691425,0.28128
1749.048633,0.28078
1751.412211,0.28061
1753.78219,0.28068
1756.158588,0.28093
1758.541435,0.28123
1760.930758,0.28138
1763.326581,0.28118
1765.728933,0.28036
1768.13784,0.27936
1770.553328,0.27883
1772.975429,0.27889
1775.404162,0.27925
1777.839558,0.27919
1780.281645,0.27863
1782.73045,0.27818
1785.186001,0.27779
1787.648326,0.27757
1790.117454,0.27766
1792.593414,0.27765
1795.07623,0.27744
1797.565933,0.27706
1800.062552,0.27633
1802.566116,0.27569
1805.076653,0.27569
1807.594193,0.2758
1810.118766,0.276
1812.650403,0.27632
1815.189129,0.27645
1817.734976,0.2763
1820.287974,0.27542
1822.848154,0.27495
1825.415545,0.27548
1827.990179,0.27542
1830.572085,0.27522
1833.161299,0.27596
1835.757844,0.27612
1838.361756,0.27537
1840.973065,0.27513
1843.591803,0.27542
1846.218001,0.27535
1848.851693,0.27407
1851.492909,0.27342
1854.141686,0.27394
1856.798049,0.27415
1859.462034,0.27374
1862.133675,0.27336
1864.813003,0.27348
1867.500053,0.27356
1870.194858,0.27321
1872.897451,0.27267
1875.60787,0.27196
1878.326142,0.27135
1881.052305,0.2714
1883.786392,0.27153
1886.528439,0.27164
1889.27848,0.27188
1892.03655,0.27162
1894.802685,0.27108
1897.576923,0.27077
1900.359294,0.27062
1903.149835,0.2706
1905.948585,0.27016
1908.755578,0.26959
1911.570851,0.2694
1914.394441,0.26911
1917.226385,0.26902
1920.066724,0.26871
1922.915487,0.26825
1925.772716,0.2682
1928.638449,0.26788
1931.512723,0.26725
1934.395578,0.26695
1937.28705,0.26686
1940.18718,0.26661
1943.09601,0.26636
1946.013571,0.26619
1948.939907,0.26595
1951.875057,0.26561
1954.819061,0.26552
1957.771959,0.26557
1960.733792,0.26531
1963.7046,0.26511
1966.684429,0.2649
1969.67331,0.26457
1972.671291,0.26452
1975.678411,0.26439
1978.694713,0.26402
1981.72024,0.264
1984.755033,0.26407
1987.799135,0.26375
1990.852594,0.2633
1993.915443,0.26304
1996.987732,0.26305
2000.069502,0.26311
2003.160799,0.26312
2006.261667,0.26309
2009.37215,0.26301
2012.492292,0.26279
2015.622144,0.2624
2018.761742,0.26208
2021.911136,0.26198
2025.070371,0.26188
2028.239495,0.2617
2031.418553,0.2616
2034.607593,0.2615
2037.806661,0.26129
2041.015809,0.26105
2044.235076,0.26097
2047.464515,0.26099
2050.704173,0.26082
2053.9541,0.26028
2057.214344,0.25974
2060.484955,0.25958
2063.765981,0.25984
2067.057478,0.26016
2070.359486,0.26004
2073.672061,0.25956
2076.995253,0.25938
2080.329113,0.25978
2083.673693,0.26013
2087.029044,0.25982
2090.39522,0.25901
2093.772276,0.25853
2097.160256,0.25854
2100.559219,0.25865
2103.969217,0.25869
2107.390304,0.25856
2110.822536,0.25825
2114.265965,0.25781
2117.720647,0.25759
2121.186643,0.2578
2124.663997,0.258
2128.152772,0.25785
2131.653022,0.25759
2135.164806,0.25747
2138.68818,0.25748
2142.223201,0.2575
2145.769927,0.25728
2149.328422,0.25692
2152.898735,0.25649
2156.480928,0.25615
2160.075063,0.25634
2163.681197,0.2567
2167.299393,0.2565
2170.929709,0.25618
2174.572208,0.25626
2178.226956,0.25632
2181.894004,0.25639
2185.57342,0.2565
2189.265266,0.25629
2192.969606,0.25612
2196.686503,0.25593
2200.416021,0.25552
2204.158225,0.25537
2207.913183,0.25543
2211.680953,0.2553
2215.461603,0.25501
2219.255201,0.25487
2223.061813,0.25488
2226.881507,0.2549
2230.714349,0.25485
2234.560407,0.25485
2238.419756,0.25486
2242.292454,0.25458
2246.178575,0.25444
2250.07819,0.25449
2253.991369,0.25422
2257.918183,0.25382
2261.858702,0.25357
2265.813,0.25353
2269.781154,0.2535
2273.763225,0.25336
2277.759293,0.25333
2281.769432,0.25336
2285.793716,0.25319
2289.832221,0.25315
2293.88502,0.25327
2297.952192,0.25327
2302.033816,0.25324
2306.129961,0.25312
2310.240709,0.25289
2314.366139,0.25268
2318.506328,0.25234
2322.661356,0.25204
2326.831304,0.25198
2331.016252,0.25185
2335.216286,0.25166
2339.431477,0.25156
2343.661913,0.25157
2347.907677,0.25154
2352.168852,0.25135
2356.445521,0.25131
2360.737771,0.25154
2365.045686,0.25159
2369.369358,0.25147
2373.708861,0.25144
2378.06429,0.25135
2382.435731,0.25112
2386.823273,0.25096
2391.227005,0.25097
2395.647017,0.25105
2400.0834,0.25103
2404.53625,0.25103
2409.005647,0.25107
2413.491691,0.25088
2417.994473,0.25052
2422.514088,0.25028
2427.050631,0.25013
2431.604196,0.25011
2436.17488,0.25018
2440.762785,0.2502
2445.367997,0.25004
2449.99062,0.2499
2454.630753,0.24997
2459.288496,0.25013
2463.963948,0.25021
2468.657212,0.25018
2473.368389,0.25009
2478.097588,0.25004
2482.844901,0.24986
2487.610438,0.24955
2492.394303,0.24935
2497.196603,0.24922
2502.017445,0.24909
2506.856937,0.24908
2511.715186,0.24907
2516.592308,0.24905
2521.488402,0.2491
2526.403583,0.24929
2531.337964,0.2495
2536.291658,0.24955
2541.264778,0.2497
2546.257439,0.24966
2551.269756,0.24936
2556.301852,0.24989
2561.353831,0.25044
2566.425818,0.25041
2571.517932,0.25087
2576.630293,0.25142
2581.763021,0.25183
2586.91624,0.25245
2592.090072,0.25285
2597.284647,0.25278
2602.500077,0.25313
2607.736495,0.25297
2612.994027,0.25288
2618.272802,0.25263
2623.572949,0.25222
2628.894597,0.2516
2634.237878,0.24998
2639.60293,0.24958
2644.989874,0.25014
2650.398851,0.25086
2655.829995,0.25238
2661.283444,0.25496
2666.759335,0.25698
2672.257807,0.25737
2677.779,0.25671
2683.323062,0.25533
2688.890121,0.25451
2694.480328,0.25393
2700.093828,0.25337
2705.730766,0.25313
2711.39129,0.25242
2717.075548,0.25161
2722.783689,0.24938
2728.515871,0.24764
2734.272233,0.24839
2740.052934,0.24816
2745.85813,0.24754
2751.687977,0.24848
2757.542631,0.24895
2763.422252,0.24831
2769.327,0.24735
2775.257043,0.2472
2781.212529,0.24708
2787.19363,0.24552
2793.200512,0.24445
2799.233341,0.24444
2805.292287,0.2434
2811.377519,0.24244
2817.489208,0.2423
2823.627536,0.24189
2829.79266,0.24179
2835.984766,0.24174
2842.20403,0.24133
2848.450631,0.24112
2854.72475,0.24114
2861.02657,0.24116
2867.356274,0.24066
2873.714055,0.23989
2880.100086,0.23963
2886.514561,0.23963
2892.957673,0.23971
2899.429613,0.23992
2905.930575,0.23979
2912.460755,0.23935
2919.020351,0.239
2925.609569,0.23863
2932.228594,0.23833
2938.877637,0.23823
2945.556904,0.23806
2952.266599,0.23769
2959.006933,0.23742
2965.778115,0.2372
2972.580357,0.23698
2979.413883,0.23695
2986.278891,0.23689
2993.175608,0.23661
3000.104254,0.23623
3007.065051,0.23606
3014.058225,0.23626
3021.084,0.23624
3028.142607,0.23566
3035.234283,0.23535
3042.359245,0.23566
3049.517737,0.23608
3056.709994,0.23615
3063.936258,0.23604
3071.196769,0.23602
3078.491772,0.23615
3085.821513,0.23629
3093.186251,0.23632
3100.586217,0.23637
3108.021674,0.23648
3115.492879,0.2366
3123.000089,0.23666
3130.543567,0.23668
3138.123574,0.23677
3145.740377,0.23684
3153.394256,0.23688
3161.08546,0.23705
3168.814274,0.23725
3176.580974,0.23744
3184.38584,0.23766
3192.229154,0.23786
3200.1112,0.23805
3208.032266,0.23823
3215.992653,0.2384
3223.992633,0.23853
3232.032514,0.23845
3240.112594,0.23829
3248.233176,0.23827
3256.394564,0.2384
3264.597068,0.23851
3272.840999,0.23858
3281.126681,0.23871
3289.454413,0.23875
3297.824524,0.23884
3306.237341,0.23923
3314.693189,0.23929
3323.192401,0.23878
3331.735311,0.23856
3340.322256,0.23889
3348.95359,0.23919
3357.629634,0.23913
3366.350748,0.23877
3375.117285,0.23841
3383.929601,0.23843
3392.788054,0.2385
3401.693008,0.23817
3410.64483,0.2376
3419.643903,0.23727
3428.690579,0.23744
3437.785247,0.23797
3446.928291,0.23849
3456.120099,0.23875
3465.36106,0.23876
3474.651571,0.23878
3483.99203,0.23898
3493.382855,0.23921
3502.824429,0.2393
3512.317177,0.23947
3521.861515,0.23986
3531.457866,0.24018
3541.106657,0.24039
3550.808317,0.24065
3560.563284,0.24089
3570.372009,0.24112
3580.234914,0.24123
3590.15246,0.24122
3600.125104,0.24137
3610.153306,0.24164
3620.237532,0.24209
3630.378252,0.24262
3640.575942,0.24269
3650.831097,0.24245
3661.144177,0.24229
3671.515689,0.24231
3681.946129,0.2425
3692.436003,0.24272
3702.985818,0.24286
3713.596091,0.24278
3724.267342,0.24273
3735.000113,0.24289
3745.79491,0.24309
3756.652285,0.2433
3767.572784,0.24355
3778.556959,0.24375
3789.605369,0.24386
3800.71858,0.24397
3811.897162,0.24407
3823.141709,0.24417
3834.452778,0.24433
3845.830974,0.24444
3857.276898,0.24451
3868.791155,0.24457
3880.37436,0.24448
3892.027134,0.24446
3903.750106,0.24467
3915.543926,0.24466
3927.409209,0.24442
3939.346621,0.24442
3951.356822,0.24458
3963.44048,0.24467
3975.598271,0.24472
3987.830879,0.24476
4000.138997,0.24475
4012.523342,0.24463
4024.984593,0.24453
4037.523484,0.24455
4050.140742,0.24462
4062.837106,0.24476
4075.613322,0.24488
4088.470144,0.24495
4101.408338,0.24507
4114.428697,0.24507
4127.531971,0.24498
4140.718972,0.24484
4153.990505,0.24478
4167.347385,0.24506
4180.790439,0.24739
4194.320503,0.2566
4207.938425,0.27761
4221.64508,0.30955
4235.441304,0.32744
4249.327994,0.31768
4263.306045,0.3114
4277.376359,0.311
4291.539855,0.3034
4305.79746,0.28912
4320.150116,0.27439
4334.598795,0.2626
4349.144426,0.25458
4363.788008,0.24972
4378.530532,0.2473
4393.373006,0.24649
4408.316449,0.24622
4423.361896,0.24592
4438.510393,0.24552
4453.763023,0.24517
4469.120824,0.24498
4484.584908,0.24481
4500.15638,0.24459
4515.836365,0.2444
4531.626,0.24438
4547.52644,0.24459
4563.538854,0.2447
4579.664452,0.24445
4595.904394,0.24426
4612.259923,0.24429
4628.732277,0.24427
4645.322713,0.2442
4662.032504,0.24387
4678.862943,0.24335
4695.815342,0.24308
4712.891054,0.24291
4730.091384,0.2427
4747.417723,0.24259
4764.871462,0.24251
4782.45401,0.24228
4800.1668,0.24218
4818.011283,0.24225
4835.988934,0.24221
4854.101273,0.24192
4872.349771,0.2413
4890.735994,0.24055
4909.261506,0.23991
4927.927896,0.23946
4946.736778,0.2392
4965.68979,0.23885
4984.788594,0.23867
5004.034903,0.23896
5023.430384,0.23929
5042.976803,0.23951
5062.675928,0.2396
5082.529556,0.23918
5102.539511,0.23849
5122.707649,0.23795
5143.03585,0.23749
5163.526056,0.23701
5184.180157,0.23682
5205.000154,0.23651
5225.988055,0.23604
5247.145898,0.23585
5268.475756,0.23592
5289.979735,0.23581
5311.659976,0.23553
5333.518684,0.2355
5355.558014,0.23499
5377.780242,0.23407
5400.187657,0.23361
5422.78258,0.23326
5445.567377,0.23305
5468.544451,0.23261
5491.716246,0.23178
5515.085278,0.23169
5538.654014,0.23211
5562.425058,0.23196
5586.401024,0.23102
5610.584574,0.23078
5634.978416,0.23116
5659.585305,0.23101
5684.408043,0.23125
5709.449517,0.23219
5734.712564,0.23282
5760.200171,0.23246
5785.915346,0.23163
5811.861151,0.23116
5838.040701,0.23088
5864.457171,0.23066
5891.11379,0.22927
5918.013883,0.22756
5945.160732,0.22653
5972.557781,0.22551
6000.208507,0.22489
6028.116449,0.22583
6056.285213,0.22751
6084.718472,0.22798
6113.41997,0.22829
6142.393557,0.22925
6171.643046,0.23012
6201.172433,0.23019
6230.985758,0.23016
6261.087133,0.23037
6291.480755,0.23089
6322.1709,0.23206
6353.161929,0.23353
6384.458328,0.2346
6416.064553,0.23439
6447.985267,0.23386
6480.225188,0.23429
6512.789128,0.2338
6545.681997,0.23342
6578.908804,0.23333
6612.47466,0.23256
6646.384825,0.23171
6680.644535,0.23126
6715.259268,0.2309
6750.234571,0.23044
6785.576107,0.22993
6821.28966,0.22987
6857.381134,0.22993
6893.856559,0.22905
6930.722144,0.22859
6967.984085,0.2288
7005.648858,0.22903
7043.72303,0.22882
7082.213314,0.22838
7121.126567,0.22816
7160.469802,0.22755
7200.250183,0.22669
7240.47509,0.22654
7281.15191,0.22676
7322.288355,0.22674
7363.892259,0.22634
7405.971636,0.22594
7448.534685,0.22555
7491.589791,0.22491
7535.145539,0.22443
7579.210768,0.22408
7623.794353,0.22352
7668.905555,0.22305
7714.553795,0.22275
7760.74872,0.22248
7807.500211,0.22234
7854.818386,0.22221
7902.713612,0.22172
7951.196573,0.22104
8000.278026,0.22044
8049.969186,0.2199
8100.281485,0.2195
8151.226643,0.21928
8202.816677,0.21933
8255.063908,0.21955
8307.980976,0.21968
8361.580914,0.21953
8415.876885,0.21919
8470.882607,0.21928
8526.612089,0.21962
8583.07971,0.21965
8640.300232,0.21955
8698.288814,0.21974
8757.061026,0.22023
8816.632938,0.22059
8877.020825,0.2208
8938.241648,0.22112
9000.312761,0.2216
9063.252001,0.2224
9127.077709,0.2241
9191.808745,0.22775
9257.464511,0.23417
9324.065051,0.24183
9391.630729,0.24748
9460.182767,0.24995
9529.742923,0.25032
9600.3336,0.24947
9671.977869,0.24783
9744.699495,0.24568
9818.522964,0.24354
9893.473606,0.24244
9969.577237,0.2436
10046.86077,0.24811
10125.35186,0.25329
10205.07902,0.25467
10286.0717,0.25467
10368.36026,0.26032
10451.97605,0.27283
10536.95157,0.2837
10623.32001,0.28682
10711.11603,0.28493
10800.37531,0.28161
10891.13475,0.27792
10983.43249,0.27461
11077.30797,0.27219
11172.80199,0.27025
11269.9569,0.26808
11368.81615,0.26395
11469.42513,0.25594
11571.83069,0.24587
11676.0814,0.23798
11782.22758,0.23428
11890.32139,0.23396
12000.41694,0.23371
12112.5705,0.23157
12226.84001,0.22872
12343.28609,0.22644
12461.97152,0.22497
12582.96151,0.22387
12706.32386,0.22284
12832.12902,0.22205
12960.45029,0.2216
13091.36408,0.2217
13224.94941,0.22204
13361.28907,0.2221
13500.46914,0.22225
13642.57932,0.22305
13787.71312,0.22386
13935.96807,0.22366
14087.44596,0.22345
14242.25324,0.2244
14400.50047,0.22633
14562.30382,0.22844
14727.78452,0.22997
14897.06937,0.22983
15070.29108,0.22663
15247.58859,0.22397
15429.10747,0.22449
15615.00054,0.22637
15805.42735,0.22799
16000.55605,0.22819
16200.56297,0.22599
16405.63335,0.22213
16615.96195,0.21826
16831.75363,0.2152
17053.22403,0.2143
17280.60061,0.2176
17514.12221,0.22562
17754.04165,0.23571
18000.62552,0.24438
18254.15542,0.25048
18514.92902,0.25589
18783.26128,0.26192
19059.48566,0.2648
19343.95592,0.26141
19637.04612,0.25498
19939.15447,0.24502
20250.70371,0.23093
20572.1434,0.22287
20903.95211,0.22594
21246.63979,0.23315
21600.75039,0.2402
21966.86522,0.24499
22345.60422,0.24882
22737.6323,0.25605
23143.66139,0.26795
23564.45516,0.28204
24000.83388,0.29004
24453.67973,0.28641
24923.94272,0.27235
25412.64804,0.26622
