Database of Origin,University of Winnipeg Spectrophotometer Facility
Sample Description,16.11. Meteorites - HEDs 16.11.3. NASA samples (4) Bruker Vertex 70 FTIR spectrometer
Other Information,MIR Glowbar KBr Beam Splitter MCT cryo cooled Dectect.
Date Added,2018-07-23 23:49:05.648880

Data ID,FTIR_MET2_6_25      
Sample ID,Millbillillie
Mineral Name,Eucrite
Grain Size,250-500 um
Viewing Geometry,i30/ e0
Resolution,7.71cm-1

Wavelength
1672.316177,0.44886
1674.476792,0.44815
1676.642997,0.4462
1678.814814,0.44428
1680.992268,0.44366
1683.175374,0.44332
1685.364158,0.44235
1687.558643,0.44131
1689.758849,0.44006
1691.9648,0.43873
1694.176519,0.43813
1696.394027,0.43777
1698.61735,0.43734
1700.846507,0.43667
1703.081521,0.43539
1705.322418,0.43391
1707.569219,0.43304
1709.821949,0.43248
1712.08063,0.43133
1714.345286,0.42965
1716.615945,0.42819
1718.892624,0.42747
1721.175349,0.427
1723.464146,0.42652
1725.759038,0.42578
1728.060049,0.42469
1730.367205,0.42404
1732.68053,0.42365
1735.000051,0.42249
1737.325788,0.42091
1739.657769,0.41942
1741.996018,0.41825
1744.340562,0.41802
1746.691425,0.41805
1749.048633,0.41755
1751.412211,0.41663
1753.78219,0.41545
1756.158588,0.41448
1758.541435,0.41387
1760.930758,0.41348
1763.326581,0.41277
1765.728933,0.41148
1768.13784,0.41046
1770.553328,0.4097
1772.975429,0.40882
1775.404162,0.40812
1777.839558,0.40757
1780.281645,0.40681
1782.73045,0.40567
1785.186001,0.40421
1787.648326,0.40292
1790.117454,0.40187
1792.593414,0.40144
1795.07623,0.40154
1797.565933,0.40116
1800.062552,0.40009
1802.566116,0.39878
1805.076653,0.39829
1807.594193,0.39832
1810.118766,0.39782
1812.650403,0.39674
1815.189129,0.39563
1817.734976,0.39505
1820.287974,0.39433
1822.848154,0.39336
1825.415545,0.39277
1827.990179,0.39207
1830.572085,0.39121
1833.161299,0.39073
1835.757844,0.39041
1838.361756,0.38989
1840.973065,0.38881
1843.591803,0.38807
1846.218001,0.38794
1848.851693,0.38717
1851.492909,0.38661
1854.141686,0.38647
1856.798049,0.38591
1859.462034,0.38465
1862.133675,0.3837
1864.813003,0.38362
1867.500053,0.38366
1870.194858,0.38333
1872.897451,0.38247
1875.60787,0.38141
1878.326142,0.38021
1881.052305,0.37929
1883.786392,0.37901
1886.528439,0.37904
1889.27848,0.37854
1892.03655,0.37755
1894.802685,0.37683
1897.576923,0.37615
1900.359294,0.37524
1903.149835,0.37467
1905.948585,0.37416
1908.755578,0.37377
1911.570851,0.37319
1914.394441,0.37212
1917.226385,0.37159
1920.066724,0.37141
1922.915487,0.37095
1925.772716,0.37025
1928.638449,0.36955
1931.512723,0.36923
1934.395578,0.36904
1937.28705,0.36842
1940.18718,0.36753
1943.09601,0.36682
1946.013571,0.36633
1948.939907,0.36587
1951.875057,0.36547
1954.819061,0.36531
1957.771959,0.36534
1960.733792,0.36518
1963.7046,0.36466
1966.684429,0.36401
1969.67331,0.3636
1972.671291,0.36351
1975.678411,0.36329
1978.694713,0.36258
1981.72024,0.36193
1984.755033,0.36163
1987.799135,0.36104
1990.852594,0.36029
1993.915443,0.36006
1996.987732,0.36021
2000.069502,0.36018
2003.160799,0.35978
2006.261667,0.35924
2009.37215,0.35858
2012.492292,0.35786
2015.622144,0.35747
2018.761742,0.35753
2021.911136,0.35771
2025.070371,0.35758
2028.239495,0.35704
2031.418553,0.35664
2034.607593,0.35642
2037.806661,0.3562
2041.015809,0.35619
2044.235076,0.35648
2047.464515,0.35644
2050.704173,0.35565
2053.9541,0.3549
2057.214344,0.35474
2060.484955,0.35465
2063.765981,0.35432
2067.057478,0.35416
2070.359486,0.35423
2073.672061,0.35423
2076.995253,0.35427
2080.329113,0.35439
2083.673693,0.3545
2087.029044,0.35442
2090.39522,0.35386
2093.772276,0.35334
2097.160256,0.35319
2100.559219,0.353
2103.969217,0.35266
2107.390304,0.35252
2110.822536,0.35252
2114.265965,0.35235
2117.720647,0.35222
2121.186643,0.35229
2124.663997,0.35232
2128.152772,0.35196
2131.653022,0.35163
2135.164806,0.35185
2138.68818,0.35198
2142.223201,0.35181
2145.769927,0.35198
2149.328422,0.35227
2152.898735,0.35229
2156.480928,0.35235
2160.075063,0.35246
2163.681197,0.35249
2167.299393,0.35254
2170.929709,0.35247
2174.572208,0.35227
2178.226956,0.35228
2181.894004,0.35243
2185.57342,0.35255
2189.265266,0.35277
2192.969606,0.35284
2196.686503,0.35282
2200.416021,0.35283
2204.158225,0.35286
2207.913183,0.35304
2211.680953,0.35313
2215.461603,0.35322
2219.255201,0.35347
2223.061813,0.35373
2226.881507,0.35404
2230.714349,0.35429
2234.560407,0.35444
2238.419756,0.35462
2242.292454,0.3547
2246.178575,0.35465
2250.07819,0.35471
2253.991369,0.35511
2257.918183,0.35564
2261.858702,0.35586
2265.813,0.35592
2269.781154,0.35615
2273.763225,0.35649
2277.759293,0.35672
2281.769432,0.35713
2285.793716,0.35757
2289.832221,0.35762
2293.88502,0.35765
2297.952192,0.35792
2302.033816,0.35801
2306.129961,0.35802
2310.240709,0.35825
2314.366139,0.35858
2318.506328,0.35877
2322.661356,0.35908
2326.831304,0.35947
2331.016252,0.35975
2335.216286,0.36006
2339.431477,0.36046
2343.661913,0.36086
2347.907677,0.36101
2352.168852,0.36122
2356.445521,0.36176
2360.737771,0.36227
2365.045686,0.36249
2369.369358,0.36277
2373.708861,0.36332
2378.06429,0.36369
2382.435731,0.3638
2386.823273,0.36396
2391.227005,0.36428
2395.647017,0.36483
2400.0834,0.36533
2404.53625,0.36551
2409.005647,0.36574
2413.491691,0.36607
2417.994473,0.36641
2422.514088,0.36686
2427.050631,0.36714
2431.604196,0.36731
2436.17488,0.36771
2440.762785,0.36799
2445.367997,0.36813
2449.99062,0.36839
2454.630753,0.36881
2459.288496,0.36936
2463.963948,0.36978
2468.657212,0.3702
2473.368389,0.37065
2478.097588,0.37101
2482.844901,0.37129
2487.610438,0.37161
2492.394303,0.37184
2497.196603,0.37201
2502.017445,0.37234
2506.856937,0.37266
2511.715186,0.37296
2516.592308,0.37346
2521.488402,0.37401
2526.403583,0.37443
2531.337964,0.37434
2536.291658,0.37413
2541.264778,0.37478
2546.257439,0.37553
2551.269756,0.37572
2556.301852,0.37637
2561.353831,0.37687
2566.425818,0.37692
2571.517932,0.37755
2576.630293,0.37837
2581.763021,0.37909
2586.91624,0.37964
2592.090072,0.3799
2597.284647,0.38016
2602.500077,0.38099
2607.736495,0.38163
2612.994027,0.38233
2618.272802,0.382
2623.572949,0.3814
2628.894597,0.38117
2634.237878,0.38007
2639.60293,0.37984
2644.989874,0.3805
2650.398851,0.38136
2655.829995,0.38316
2661.283444,0.38594
2666.759335,0.38739
2672.257807,0.38739
2677.779,0.38783
2683.323062,0.38726
2688.890121,0.38623
2694.480328,0.38554
2700.093828,0.38527
2705.730766,0.38511
2711.39129,0.38397
2717.075548,0.3825
2722.783689,0.3795
2728.515871,0.37686
2734.272233,0.37638
2740.052934,0.37457
2745.85813,0.37283
2751.687977,0.37264
2757.542631,0.37128
2763.422252,0.36841
2769.327,0.3653
2775.257043,0.36346
2781.212529,0.36169
2787.19363,0.35877
2793.200512,0.35694
2799.233341,0.35596
2805.292287,0.35401
2811.377519,0.35257
2817.489208,0.35186
2823.627536,0.35097
2829.79266,0.35019
2835.984766,0.34919
2842.20403,0.34824
2848.450631,0.34747
2854.72475,0.3463
2861.02657,0.34531
2867.356274,0.34485
2873.714055,0.34444
2880.100086,0.34413
2886.514561,0.34393
2892.957673,0.34375
2899.429613,0.34344
2905.930575,0.34278
2912.460755,0.34216
2919.020351,0.34172
2925.609569,0.34117
2932.228594,0.3405
2938.877637,0.34011
2945.556904,0.34011
2952.266599,0.33993
2959.006933,0.33958
2965.778115,0.33941
2972.580357,0.3393
2979.413883,0.33919
2986.278891,0.33909
2993.175608,0.33901
3000.104254,0.33903
3007.065051,0.33925
3014.058225,0.33946
3021.084,0.33926
3028.142607,0.33884
3035.234283,0.33871
3042.359245,0.33879
3049.517737,0.33894
3056.709994,0.33917
3063.936258,0.33948
3071.196769,0.33972
3078.491772,0.33983
3085.821513,0.34005
3093.186251,0.34027
3100.586217,0.34033
3108.021674,0.34023
3115.492879,0.34
3123.000089,0.34004
3130.543567,0.34053
3138.123574,0.34104
3145.740377,0.34135
3153.394256,0.34161
3161.08546,0.34188
3168.814274,0.34211
3176.580974,0.34233
3184.38584,0.34254
3192.229154,0.34279
3200.1112,0.34285
3208.032266,0.34275
3215.992653,0.34303
3223.992633,0.34354
3232.032514,0.3437
3240.112594,0.34379
3248.233176,0.34404
3256.394564,0.3441
3264.597068,0.34404
3272.840999,0.34423
3281.126681,0.34447
3289.454413,0.34466
3297.824524,0.34484
3306.237341,0.34477
3314.693189,0.34454
3323.192401,0.34434
3331.735311,0.34419
3340.322256,0.34401
3348.95359,0.34387
3357.629634,0.34344
3366.350748,0.34227
3375.117285,0.34105
3383.929601,0.34068
3392.788054,0.34033
3401.693008,0.33892
3410.64483,0.3373
3419.643903,0.33694
3428.690579,0.33799
3437.785247,0.33946
3446.928291,0.3407
3456.120099,0.3415
3465.36106,0.34184
3474.651571,0.34168
3483.99203,0.34118
3493.382855,0.3405
3502.824429,0.34026
3512.317177,0.34115
3521.861515,0.34241
3531.457866,0.34314
3541.106657,0.34357
3550.808317,0.34387
3560.563284,0.34383
3570.372009,0.34364
3580.234914,0.34355
3590.15246,0.34352
3600.125104,0.34331
3610.153306,0.34313
3620.237532,0.34326
3630.378252,0.34345
3640.575942,0.34343
3650.831097,0.34337
3661.144177,0.34345
3671.515689,0.34345
3681.946129,0.3433
3692.436003,0.34325
3702.985818,0.34333
3713.596091,0.34324
3724.267342,0.34291
3735.000113,0.34283
3745.79491,0.34304
3756.652285,0.34312
3767.572784,0.34316
3778.556959,0.34327
3789.605369,0.34334
3800.71858,0.34334
3811.897162,0.34318
3823.141709,0.34299
3834.452778,0.3429
3845.830974,0.34279
3857.276898,0.34276
3868.791155,0.34277
3880.37436,0.34258
3892.027134,0.34237
3903.750106,0.34214
3915.543926,0.34182
3927.409209,0.3417
3939.346621,0.34172
3951.356822,0.34154
3963.44048,0.34124
3975.598271,0.34092
3987.830879,0.34065
4000.138997,0.34047
4012.523342,0.34006
4024.984593,0.33948
4037.523484,0.33921
4050.140742,0.33918
4062.837106,0.33909
4075.613322,0.33881
4088.470144,0.33861
4101.408338,0.33853
4114.428697,0.33833
4127.531971,0.33805
4140.718972,0.33783
4153.990505,0.33764
4167.347385,0.33763
4180.790439,0.34
4194.320503,0.35059
4207.938425,0.37561
4221.64508,0.4141
4235.441304,0.43545
4249.327994,0.42325
4263.306045,0.4153
4277.376359,0.41449
4291.539855,0.40502
4305.79746,0.38704
4320.150116,0.36854
4334.598795,0.35403
4349.144426,0.34414
4363.788008,0.33813
4378.530532,0.33513
4393.373006,0.33417
4408.316449,0.33381
4423.361896,0.33307
4438.510393,0.33215
4453.763023,0.33142
4469.120824,0.33093
4484.584908,0.33054
4500.15638,0.33004
4515.836365,0.32938
4531.626,0.32861
4547.52644,0.32809
4563.538854,0.32782
4579.664452,0.32718
4595.904394,0.32618
4612.259923,0.32513
4628.732277,0.32389
4645.322713,0.32249
4662.032504,0.32105
4678.862943,0.31955
4695.815342,0.31808
4712.891054,0.31644
4730.091384,0.31461
4747.417723,0.31275
4764.871462,0.31109
4782.45401,0.30986
4800.1668,0.30892
4818.011283,0.30794
4835.988934,0.30684
4854.101273,0.30566
4872.349771,0.30471
4890.735994,0.30382
4909.261506,0.3027
4927.927896,0.30147
4946.736778,0.30029
4965.68979,0.29891
4984.788594,0.29763
5004.034903,0.29671
5023.430384,0.29596
5042.976803,0.29509
5062.675928,0.29406
5082.529556,0.2932
5102.539511,0.29243
5122.707649,0.29173
5143.03585,0.29113
5163.526056,0.29045
5184.180157,0.28967
5205.000154,0.28861
5225.988055,0.28755
5247.145898,0.28674
5268.475756,0.28629
5289.979735,0.28604
5311.659976,0.28598
5333.518684,0.28631
5355.558014,0.28671
5377.780242,0.28706
5400.187657,0.2876
5422.78258,0.28806
5445.567377,0.2886
5468.544451,0.28895
5491.716246,0.28907
5515.085278,0.28965
5538.654014,0.29022
5562.425058,0.29007
5586.401024,0.28918
5610.584574,0.28864
5634.978416,0.28835
5659.585305,0.28769
5684.408043,0.2872
5709.449517,0.28686
5734.712564,0.28643
5760.200171,0.28554
5785.915346,0.28466
5811.861151,0.28414
5838.040701,0.2836
5864.457171,0.28338
5891.11379,0.28202
5918.013883,0.28005
5945.160732,0.27859
5972.557781,0.27754
6000.208507,0.27719
6028.116449,0.27774
6056.285213,0.27808
6084.718472,0.27755
6113.41997,0.27729
6142.393557,0.27738
6171.643046,0.27746
6201.172433,0.27718
6230.985758,0.277
6261.087133,0.27711
6291.480755,0.27762
6322.1709,0.27861
6353.161929,0.27966
6384.458328,0.28054
6416.064553,0.28057
6447.985267,0.2802
6480.225188,0.28023
6512.789128,0.2796
6545.681997,0.27929
6578.908804,0.27909
6612.47466,0.27873
6646.384825,0.27842
6680.644535,0.278
6715.259268,0.27766
6750.234571,0.27763
6785.576107,0.27766
6821.28966,0.27757
6857.381134,0.27691
6893.856559,0.27591
6930.722144,0.27575
6967.984085,0.27585
7005.648858,0.27571
7043.72303,0.27515
7082.213314,0.27464
7121.126567,0.27454
7160.469802,0.27403
7200.250183,0.27317
7240.47509,0.27265
7281.15191,0.27224
7322.288355,0.2717
7363.892259,0.2713
7405.971636,0.27102
7448.534685,0.2704
7491.589791,0.26946
7535.145539,0.26895
7579.210768,0.26872
7623.794353,0.26795
7668.905555,0.26684
7714.553795,0.26585
7760.74872,0.26501
7807.500211,0.26472
7854.818386,0.2648
7902.713612,0.26459
7951.196573,0.26425
8000.278026,0.26408
8049.969186,0.26397
8100.281485,0.26398
8151.226643,0.26438
8202.816677,0.26511
8255.063908,0.26581
8307.980976,0.26665
8361.580914,0.26803
8415.876885,0.26953
8470.882607,0.27039
8526.612089,0.27088
8583.07971,0.27159
8640.300232,0.2726
8698.288814,0.27381
8757.061026,0.2753
8816.632938,0.27745
8877.020825,0.28052
8938.241648,0.28429
9000.312761,0.2881
9063.252001,0.29109
9127.077709,0.29252
9191.808745,0.29232
9257.464511,0.29081
9324.065051,0.28959
9391.630729,0.28945
9460.182767,0.28918
9529.742923,0.28926
9600.3336,0.29037
9671.977869,0.29143
9744.699495,0.29162
9818.522964,0.2908
9893.473606,0.28901
9969.577237,0.28699
10046.86077,0.28619
10125.35186,0.28667
10205.07902,0.28717
10286.0717,0.28763
10368.36026,0.28882
10451.97605,0.29023
10536.95157,0.29119
10623.32001,0.29158
10711.11603,0.29085
10800.37531,0.28923
10891.13475,0.28812
10983.43249,0.28926
11077.30797,0.29219
11172.80199,0.29406
11269.9569,0.2941
11368.81615,0.29346
11469.42513,0.29222
11571.83069,0.2902
11676.0814,0.28821
11782.22758,0.28664
11890.32139,0.28534
12000.41694,0.28442
12112.5705,0.28368
12226.84001,0.28289
12343.28609,0.28188
12461.97152,0.28108
12582.96151,0.28042
12706.32386,0.27926
12832.12902,0.27833
12960.45029,0.2787
13091.36408,0.28001
13224.94941,0.28137
13361.28907,0.28265
13500.46914,0.28376
13642.57932,0.28459
13787.71312,0.28532
13935.96807,0.28566
14087.44596,0.28542
14242.25324,0.28511
14400.50047,0.28531
14562.30382,0.28549
14727.78452,0.28573
14897.06937,0.28539
15070.29108,0.28171
15247.58859,0.27757
15429.10747,0.27537
15615.00054,0.2734
15805.42735,0.27097
16000.55605,0.26877
16200.56297,0.26782
16405.63335,0.26858
16615.96195,0.27162
16831.75363,0.27647
17053.22403,0.28076
17280.60061,0.28344
17514.12221,0.28597
17754.04165,0.28929
18000.62552,0.29189
18254.15542,0.29294
18514.92902,0.29301
18783.26128,0.29169
19059.48566,0.2896
19343.95592,0.2865
19637.04612,0.28258
19939.15447,0.28091
20250.70371,0.28105
20572.1434,0.27969
20903.95211,0.27502
21246.63979,0.26835
21600.75039,0.26267
21966.86522,0.25887
22345.60422,0.25681
22737.6323,0.25572
23143.66139,0.25329
23564.45516,0.24978
24000.83388,0.25033
24453.67973,0.25124
24923.94272,0.25207
25412.64804,0.26419
