Database of Origin,University of Winnipeg Spectrophotometer Facility
Sample Description,Carbonates and Oxolates -  D&P Spectra Reflectance spectra
Other Information,"Designs and Prototypes 102F spectra/Relative to infragold 1"" disk/Reflectance only"
Date Added,2018-08-06 21:06:09.641438

Data ID,FTIR_CARB_39_6      
Sample ID,CRB126
Mineral Name,Shortite
Locality,Stauffer Mine/ Green River/ Wyoming/ USA
Grain Size,<45 um
Viewing Geometry,i=35/ e=0
Resolution,~3 cm-1
Formula,Na2Ca2(CO3)3
Composition,Pure shortite (July 06).

Wavelength
2.001142,0.62336345
2.002307,0.6236741
2.003474,0.62353211
2.004643,0.62361145
2.005812,0.62495146
2.006983,0.62640811
2.008155,0.62683824
2.009329,0.62702153
2.010504,0.62694189
2.01168,0.62675808
2.012858,0.62668308
2.014037,0.62624309
2.015217,0.62564074
2.016399,0.62508231
2.017582,0.6247153
2.018766,0.62455983
2.019952,0.62435504
2.021139,0.62353153
2.022328,0.62234203
2.023518,0.62181679
2.024709,0.62150943
2.025902,0.62074982
2.027096,0.62004246
2.028291,0.61997192
2.029488,0.61990677
2.030686,0.61925071
2.031886,0.61813224
2.033087,0.61710586
2.034289,0.61711615
2.035493,0.61748471
2.036698,0.61766901
2.037905,0.61851333
2.039113,0.62034986
2.040322,0.62254928
2.041533,0.62412847
2.042746,0.62562182
2.043959,0.62663156
2.045174,0.62668851
2.046391,0.62770685
2.047609,0.62994514
2.048828,0.63194609
2.050049,0.63266343
2.051271,0.63285877
2.052495,0.63363701
2.05372,0.63415696
2.054947,0.6338574
2.056175,0.6334037
2.057404,0.63323527
2.058635,0.63303111
2.059867,0.6331196
2.061101,0.63417274
2.062336,0.63553873
2.063573,0.63587969
2.064811,0.6355727
2.066051,0.63596893
2.067292,0.63662728
2.068534,0.63664384
2.069778,0.63628874
2.071024,0.63634788
2.072271,0.63630159
2.073519,0.63577765
2.074769,0.63609194
2.07602,0.63667592
2.077273,0.63706167
2.078528,0.63814092
2.079784,0.63879583
2.081041,0.638661
2.0823,0.63840465
2.08356,0.63762681
2.084822,0.63677359
2.086085,0.63683849
2.08735,0.63765561
2.088617,0.63853321
2.089885,0.63818574
2.091154,0.63726212
2.092425,0.63775391
2.093697,0.63900284
2.094971,0.63976994
2.096247,0.6402784
2.097524,0.64011631
2.098803,0.63988737
2.100083,0.64123728
2.101364,0.64236217
2.102648,0.6428125
2.103932,0.64399288
2.105219,0.645149
2.106506,0.64600894
2.107796,0.64649966
2.109087,0.6464723
2.110379,0.64662075
2.111673,0.64780805
2.112969,0.64929568
2.114266,0.65006825
2.115565,0.6505602
2.116865,0.65078297
2.118167,0.65078061
2.119471,0.65086332
2.120776,0.65063111
2.122082,0.65001269
2.123391,0.64978021
2.1247,0.64966378
2.126012,0.64853441
2.127325,0.6471509
2.12864,0.64588128
2.129956,0.64536063
2.131274,0.64686184
2.132593,0.64810987
2.133914,0.647872
2.135237,0.64801921
2.136561,0.64835891
2.137887,0.64842349
2.139214,0.64886896
2.140544,0.64830421
2.141874,0.6477347
2.143207,0.64853753
2.144541,0.64837514
2.145876,0.647841
2.147214,0.64799955
2.148553,0.64799895
2.149893,0.64815024
2.151235,0.6485225
2.152579,0.64835831
2.153925,0.64748236
2.155272,0.64714717
2.156621,0.64740961
2.157972,0.64667515
2.159324,0.64536753
2.160678,0.64508508
2.162033,0.64567189
2.16339,0.64609565
2.164749,0.64569694
2.16611,0.64523691
2.167472,0.64521925
2.168836,0.64537565
2.170202,0.64523611
2.171569,0.64451463
2.172938,0.64392776
2.174309,0.64365842
2.175682,0.64368483
2.177056,0.64331335
2.178432,0.64308933
2.179809,0.64369333
2.181189,0.64364805
2.18257,0.64314649
2.183952,0.64284834
2.185337,0.64226206
2.186723,0.64157066
2.188111,0.64117778
2.189501,0.64061477
2.190892,0.64043719
2.192285,0.6410709
2.19368,0.64076217
2.195077,0.64036466
2.196476,0.64130446
2.197876,0.64157595
2.199278,0.64098227
2.200682,0.64097037
2.202087,0.64083744
2.203494,0.64037485
2.204903,0.64028501
2.206314,0.63968713
2.207727,0.63881468
2.209141,0.63876304
2.210557,0.63892566
2.211975,0.6388391
2.213395,0.63842091
2.214817,0.63799986
2.21624,0.63737182
2.217665,0.6366852
2.219092,0.63703791
2.220521,0.63718706
2.221952,0.63661231
2.223384,0.63667356
2.224818,0.63692325
2.226254,0.63640795
2.227692,0.63530043
2.229132,0.63477298
2.230574,0.63527082
2.232017,0.63529315
2.233462,0.63429439
2.23491,0.63324353
2.236359,0.63253081
2.237809,0.63181907
2.239262,0.63174785
2.240717,0.63239923
2.242173,0.63245903
2.243631,0.63211841
2.245092,0.63174078
2.246554,0.63131435
2.248017,0.63102721
2.249483,0.63105231
2.250951,0.63128576
2.252421,0.63135647
2.253892,0.63099976
2.255365,0.63023511
2.256841,0.62979418
2.258318,0.62960894
2.259797,0.62946648
2.261278,0.62941538
2.262761,0.62900558
2.264246,0.62829837
2.265732,0.6275491
2.267221,0.62681555
2.268712,0.62592837
2.270204,0.62519403
2.271699,0.62446595
2.273195,0.62340223
2.274694,0.62255027
2.276194,0.62167636
2.277696,0.62073413
2.279201,0.62053479
2.280707,0.62098692
2.282215,0.62133304
2.283725,0.62149966
2.285237,0.6221118
2.286752,0.62278921
2.288268,0.62259187
2.289786,0.62208758
2.291306,0.62215932
2.292828,0.62254252
2.294352,0.62273637
2.295878,0.62283996
2.297406,0.62258376
2.298936,0.62232094
2.300468,0.62260134
2.302002,0.62234179
2.303539,0.62162157
2.305077,0.62127998
2.306617,0.62119767
2.308159,0.62152643
2.309703,0.62173002
2.31125,0.62121917
2.312798,0.62017226
2.314348,0.61932716
2.315901,0.61970617
2.317455,0.62039696
2.319012,0.62066966
2.320571,0.62109026
2.322131,0.62153551
2.323694,0.62179633
2.325259,0.62200805
2.326826,0.62242467
2.328395,0.62263942
2.329966,0.62267356
2.33154,0.62279888
2.333115,0.62256381
2.334692,0.62214403
2.336272,0.62112465
2.337854,0.61892743
2.339437,0.61646062
2.341023,0.61508388
2.342611,0.61545555
2.344201,0.61668252
2.345794,0.61870357
2.347388,0.62137987
2.348985,0.62316003
2.350583,0.62414026
2.352184,0.6252559
2.353787,0.62623644
2.355393,0.62669036
2.357,0.62709122
2.358609,0.62756057
2.360221,0.62830636
2.361835,0.62926012
2.363451,0.62994125
2.365069,0.63052987
2.36669,0.63134184
2.368312,0.63236202
2.369937,0.63326986
2.371564,0.63411371
2.373194,0.63482828
2.374825,0.6352814
2.376459,0.63577886
2.378095,0.63622085
2.379733,0.63647677
2.381373,0.63669218
2.383016,0.6363386
2.384661,0.6354245
2.386308,0.63483439
2.387957,0.63434937
2.389609,0.63352226
2.391263,0.63283594
2.392919,0.63239441
2.394577,0.63124029
2.396238,0.62946935
2.397901,0.62796352
2.399566,0.62575924
2.401233,0.62278265
2.402903,0.62092104
2.404575,0.62086561
2.40625,0.62223263
2.407926,0.62463192
2.409606,0.62713841
2.411287,0.62853939
2.412971,0.62905512
2.414657,0.62979242
2.416345,0.63064392
2.418036,0.63113001
2.419729,0.63095796
2.421424,0.63048851
2.423122,0.630594
2.424822,0.63051486
2.426524,0.62938937
2.428229,0.62761932
2.429936,0.62605946
2.431646,0.62535219
2.433358,0.62480777
2.435072,0.6237738
2.436789,0.62293268
2.438508,0.62200356
2.440229,0.620558
2.441953,0.61910325
2.443679,0.61747742
2.445408,0.6158432
2.447139,0.61433532
2.448873,0.61263205
2.450609,0.61114895
2.452347,0.61036328
2.454088,0.60987054
2.455831,0.60922201
2.457577,0.60834785
2.459325,0.60739532
2.461076,0.60681735
2.462829,0.60624139
2.464585,0.60496321
2.466343,0.60356812
2.468104,0.60239044
2.469867,0.60089505
2.471632,0.5992972
2.4734,0.59820877
2.475171,0.59772928
2.476944,0.59700649
2.47872,0.59564802
2.480498,0.5944056
2.482278,0.59284204
2.484062,0.59089051
2.485847,0.58933038
2.487636,0.58790127
2.489427,0.58636867
2.49122,0.58513802
2.493016,0.58404527
2.494814,0.58270226
2.496615,0.58101325
2.498419,0.57901997
2.500225,0.57771231
2.502034,0.57658623
2.503845,0.5749293
2.505659,0.5738477
2.507476,0.57343763
2.509295,0.5731449
2.511117,0.57355868
2.512942,0.5749702
2.514769,0.57582135
2.516598,0.57564364
2.518431,0.57496629
2.520266,0.57467652
2.522103,0.57566392
2.523944,0.57700816
2.525787,0.57860618
2.527632,0.58082914
2.52948,0.58395262
2.531331,0.58680297
2.533185,0.58862558
2.535041,0.58991001
2.5369,0.58926218
2.538762,0.58913984
2.540627,0.59129066
2.542494,0.59307246
2.544364,0.5948093
2.546236,0.59732379
2.548112,0.59894926
2.54999,0.60161756
2.55187,0.60472867
2.553754,0.6056613
2.55564,0.60710834
2.557529,0.61022104
2.559421,0.61370521
2.561316,0.61477308
2.563213,0.61160253
2.565113,0.60948999
2.567016,0.61182312
2.568922,0.61454617
2.570831,0.61628043
2.572742,0.61942687
2.574656,0.62215292
2.576573,0.62389608
2.578493,0.62589184
2.580416,0.62849944
2.582342,0.62971483
2.58427,0.62826363
2.586201,0.62801801
2.588135,0.62758519
2.590072,0.62698001
2.592012,0.63077852
2.593955,0.6329366
2.5959,0.6233961
2.597849,0.61951754
2.5998,0.62050871
2.601755,0.6206894
2.603712,0.62058939
2.605672,0.61728246
2.607635,0.61322483
2.609601,0.61431321
2.61157,0.61806296
2.613542,0.62202195
2.615517,0.6254554
2.617495,0.62618776
2.619475,0.62606047
2.621459,0.62529591
2.623446,0.62624043
2.625435,0.62845137
2.627428,0.62896806
2.629424,0.62969263
2.631423,0.62812569
2.633424,0.62615419
2.635429,0.62537047
2.637437,0.62504223
2.639447,0.62578973
2.641461,0.62609937
2.643478,0.62637355
2.645498,0.62573071
2.647521,0.6237808
2.649547,0.62475818
2.651576,0.6262103
2.653609,0.6240912
2.655644,0.62228345
2.657682,0.62298885
2.659724,0.6229889
2.661768,0.62187258
2.663816,0.62413394
2.665867,0.62401054
2.667921,0.62160407
2.669978,0.62107789
2.672038,0.61713169
2.674102,0.61819561
2.676168,0.62185232
2.678238,0.61978588
2.680311,0.61671808
2.682387,0.61560993
2.684467,0.61351139
2.686549,0.60962526
2.688635,0.60554436
2.690724,0.60355404
2.692816,0.60300887
2.694911,0.59672401
2.69701,0.58693985
2.699112,0.58128779
2.701217,0.57488434
2.703325,0.56561973
2.705437,0.55921345
2.707552,0.55923923
2.70967,0.56376173
2.711791,0.56433701
2.713916,0.56354897
2.716044,0.56445238
2.718175,0.56495117
2.72031,0.56121645
2.722448,0.55277887
2.724589,0.54573083
2.726734,0.53640888
2.728882,0.52866103
2.731034,0.52323134
2.733188,0.51830017
2.735347,0.51103053
2.737508,0.5054385
2.739673,0.50194989
2.741841,0.48914394
2.744013,0.47841573
2.746188,0.47219185
2.748367,0.46586601
2.750549,0.45919488
2.752734,0.45438266
2.754923,0.44976126
2.757115,0.43811697
2.759311,0.4294453
2.76151,0.42464913
2.763713,0.41892631
2.765919,0.41564217
2.768129,0.4140539
2.770342,0.41175287
2.772559,0.40872678
2.774779,0.40635232
2.777003,0.40459752
2.77923,0.40213568
2.781461,0.39821781
2.783696,0.39371511
2.785934,0.39035738
2.788175,0.385072
2.79042,0.37947041
2.792669,0.37664113
2.794922,0.37521577
2.797178,0.37472372
2.799437,0.37460379
2.8017,0.37454792
2.803967,0.37172688
2.806238,0.36698572
2.808512,0.36373181
2.810789,0.3606341
2.813071,0.35825442
2.815356,0.35587452
2.817645,0.35273861
2.819937,0.3497842
2.822233,0.34629417
2.824533,0.34299346
2.826837,0.34057953
2.829144,0.33763639
2.831455,0.33433477
2.83377,0.33165711
2.836089,0.32938969
2.838411,0.32705352
2.840737,0.32422047
2.843067,0.32155259
2.845401,0.32024482
2.847739,0.3200631
2.85008,0.31964457
2.852425,0.31905256
2.854774,0.31806982
2.857127,0.3160101
2.859484,0.31421692
2.861844,0.313044
2.864209,0.31166493
2.866577,0.31011838
2.868949,0.30883696
2.871325,0.3075902
2.873705,0.30594102
2.876089,0.30409838
2.878477,0.30246135
2.880869,0.30124456
2.883265,0.30038034
2.885664,0.29977035
2.888068,0.29973881
2.890476,0.29976061
2.892887,0.29915257
2.895303,0.29876685
2.897723,0.29916696
2.900146,0.29978773
2.902574,0.29984774
2.905006,0.29974818
2.907441,0.29996202
2.909881,0.30025228
2.912325,0.30078186
2.914773,0.30175702
2.917225,0.30304251
2.919681,0.30373124
2.922142,0.30379563
2.924606,0.30396475
2.927075,0.30444219
2.929547,0.30486062
2.932024,0.30457904
2.934505,0.30458122
2.93699,0.30548442
2.939479,0.30634198
2.941973,0.30634916
2.944471,0.30609174
2.946973,0.30698966
2.949479,0.30728899
2.951989,0.30666041
2.954504,0.30755668
2.957023,0.30832761
2.959546,0.30765748
2.962073,0.3072929
2.964605,0.30754911
2.967141,0.30812239
2.969681,0.3084715
2.972226,0.30904982
2.974775,0.31058872
2.977328,0.31103103
2.979886,0.31003419
2.982448,0.30931582
2.985015,0.3095243
2.987586,0.31025862
2.990161,0.31127015
2.99274,0.31220664
2.995324,0.31230658
2.997913,0.31256693
3.000506,0.31348145
3.003103,0.31404997
3.005705,0.31390506
3.008312,0.31358582
3.010922,0.31356647
3.013538,0.31376841
3.016158,0.31395344
3.018782,0.31388752
3.021411,0.3135835
3.024044,0.31344695
3.026683,0.31384383
3.029325,0.31483754
3.031972,0.31614793
3.034624,0.31609624
3.037281,0.31484415
3.039942,0.31455926
3.042607,0.31512934
3.045278,0.31533068
3.047953,0.31479603
3.050632,0.31427391
3.053317,0.31372225
3.056006,0.31298751
3.0587,0.31308595
3.061398,0.31393287
3.064101,0.31503884
3.066809,0.3155521
3.069522,0.31521578
3.072239,0.31479887
3.074962,0.3141083
3.077689,0.31388217
3.080421,0.3144868
3.083157,0.31426876
3.085899,0.31362426
3.088645,0.31351087
3.091396,0.31323266
3.094153,0.31305883
3.096914,0.31354302
3.099679,0.31446482
3.10245,0.31478884
3.105226,0.31433566
3.108007,0.31413915
3.110792,0.31413692
3.113583,0.3138159
3.116378,0.31324922
3.119179,0.31278644
3.121985,0.31256843
3.124795,0.31271156
3.127611,0.3130075
3.130431,0.31315798
3.133257,0.31342338
3.136088,0.31389428
3.138924,0.31444416
3.141765,0.31489503
3.144611,0.31516193
3.147462,0.31539532
3.150319,0.31612571
3.15318,0.31718606
3.156047,0.31790176
3.158919,0.31837743
3.161796,0.31863175
3.164678,0.31873457
3.167566,0.3187349
3.170458,0.31869996
3.173356,0.31875544
3.17626,0.31870167
3.179168,0.31975781
3.182082,0.32152357
3.185001,0.32183221
3.187926,0.3215012
3.190856,0.32186564
3.193791,0.32260941
3.196731,0.32228282
3.199677,0.32106732
3.202629,0.32060736
3.205585,0.32025964
3.208548,0.31962093
3.211515,0.31968487
3.214488,0.32021029
3.217467,0.31952494
3.220451,0.31636827
3.223441,0.31244887
3.226436,0.30906411
3.229437,0.30485033
3.232443,0.30079435
3.235455,0.29721931
3.238472,0.2927297
3.241495,0.28880323
3.244523,0.28624508
3.247558,0.28391554
3.250598,0.28192251
3.253643,0.28081502
3.256694,0.27989548
3.259751,0.27721072
3.262814,0.27344427
3.265882,0.27155971
3.268956,0.27131595
3.272036,0.27032216
3.275122,0.2678967
3.278213,0.26556639
3.28131,0.26464866
3.284413,0.26485892
3.287522,0.26504304
3.290637,0.26468528
3.293757,0.26484603
3.296884,0.26438852
3.300016,0.26085457
3.303155,0.25625926
3.306299,0.25203791
3.309449,0.24689496
3.312605,0.24215402
3.315767,0.23913742
3.318936,0.23727522
3.32211,0.23621557
3.32529,0.23471784
3.328476,0.22900459
3.331669,0.21362518
3.334867,0.19012377
3.338072,0.16811372
3.341282,0.15357251
3.344499,0.14719887
3.347722,0.14737906
3.350952,0.15162626
3.354187,0.15693825
3.357429,0.16175539
3.360677,0.16654823
3.363931,0.1703032
3.367191,0.17149538
3.370458,0.17168497
3.373731,0.17286605
3.37701,0.17420978
3.380296,0.17614518
3.383588,0.17893027
3.386886,0.17951678
3.390191,0.17513036
3.393502,0.16697145
3.39682,0.15783387
3.400144,0.14967604
3.403475,0.14584518
3.406812,0.1461354
3.410156,0.14689646
3.413506,0.14849922
3.416862,0.15121019
3.420226,0.15354763
3.423596,0.15399354
3.426972,0.15096574
3.430355,0.1473593
3.433745,0.14690232
3.437141,0.14923332
3.440545,0.15299223
3.443954,0.15572124
3.447371,0.15628211
3.450794,0.1573184
3.454224,0.15964323
3.457661,0.16178466
3.461105,0.16384643
3.464556,0.16540972
3.468013,0.16520868
3.471477,0.16526277
3.474948,0.16930307
3.478426,0.17773312
3.481911,0.18749958
3.485403,0.19524304
3.488902,0.2010838
3.492408,0.20589266
3.495921,0.2089538
3.499441,0.21060822
3.502968,0.21026232
3.506502,0.20687667
3.510043,0.20319365
3.513592,0.20440716
3.517147,0.21053248
3.52071,0.21685475
3.52428,0.22073759
3.527857,0.22287612
3.531441,0.2257595
3.535032,0.22944379
3.538631,0.23424283
3.542237,0.24549876
3.545851,0.26633523
3.549471,0.2913325
3.553099,0.31267113
3.556735,0.32738741
3.560378,0.33635142
3.564028,0.34162379
3.567686,0.34521251
3.571351,0.34728481
3.575024,0.34671997
3.578704,0.34392895
3.582392,0.34099625
3.586088,0.33860927
3.589791,0.33634313
3.593501,0.33536002
3.59722,0.33626166
3.600946,0.33831109
3.604679,0.34221448
3.608421,0.34900654
3.61217,0.35853123
3.615926,0.36904696
3.619691,0.37794167
3.623463,0.38460817
3.627244,0.38939518
3.631032,0.39236092
3.634828,0.39437024
3.638632,0.39600072
3.642444,0.39713749
3.646263,0.39809721
3.650091,0.39920718
3.653927,0.39992131
3.657771,0.40011912
3.661623,0.40033603
3.665483,0.40067607
3.669351,0.4009093
3.673227,0.40092967
3.677111,0.40095394
3.681004,0.40085583
3.684905,0.4002699
3.688814,0.39940303
3.692731,0.3988985
3.696656,0.39887983
3.70059,0.39877235
3.704532,0.39808068
3.708483,0.39704571
3.712442,0.3961455
3.716409,0.39511069
3.720385,0.39378586
3.72437,0.39232246
3.728362,0.39043941
3.732364,0.38785323
3.736374,0.38479824
3.740392,0.38146093
3.744419,0.37739162
3.748455,0.37164782
3.752499,0.36379719
3.756553,0.35423871
3.760614,0.34298249
3.764685,0.32997327
3.768764,0.31566209
3.772853,0.3013822
3.77695,0.28866446
3.781056,0.27717368
3.78517,0.26555162
3.789294,0.25316947
3.793427,0.23982957
3.797568,0.22558361
3.801719,0.2110016
3.805879,0.19613676
3.810048,0.18155035
3.814225,0.16980298
3.818412,0.16226734
3.822609,0.15772156
3.826814,0.15565514
3.831029,0.15681351
3.835252,0.16038843
3.839486,0.16432217
3.843728,0.16773916
3.84798,0.17092129
3.852241,0.17434331
3.856512,0.17809406
3.860792,0.18082222
3.865081,0.18099533
3.86938,0.17860107
3.873689,0.17448255
3.878007,0.16944897
3.882334,0.16341366
3.886672,0.15755465
3.891019,0.15407076
3.895375,0.15168231
3.899742,0.14786465
3.904118,0.14305945
3.908504,0.13901786
3.9129,0.13573085
3.917305,0.13165763
3.921721,0.12748695
3.926146,0.12598493
3.930581,0.12804702
3.935027,0.13193564
3.939482,0.13503854
3.943948,0.13790802
3.948423,0.1424058
3.952909,0.1464394
3.957405,0.1470809
3.961911,0.14388653
3.966427,0.13955626
3.970954,0.13710861
3.975491,0.13552285
3.980038,0.13240718
3.984595,0.12694499
3.989163,0.12549914
3.993742,0.13922141
3.99833,0.16545505
4.00293,0.19003605
4.00754,0.20672005
4.01216,0.21854848
4.016791,0.22841517
4.021433,0.23530439
4.026086,0.23693724
4.030749,0.23304849
4.035423,0.22620593
4.040108,0.21923736
4.044804,0.21288984
4.04951,0.20649241
4.054228,0.19988641
4.058956,0.19343949
4.063695,0.18610694
4.068446,0.17805532
4.073207,0.17629928
4.07798,0.19079531
4.082764,0.22007906
4.087559,0.25196043
4.092365,0.27894051
4.097183,0.30062778
4.102012,0.31742764
4.106852,0.32903554
4.111703,0.33672697
4.116566,0.3429447
4.121441,0.34853994
4.126327,0.35394029
4.131224,0.36003729
4.136133,0.3663556
4.141054,0.37188356
4.145987,0.37646117
4.150931,0.37999946
4.155887,0.38267041
4.160854,0.38501047
4.165834,0.38741488
4.170826,0.38988567
4.175829,0.39225866
4.180844,0.39465484
4.185872,0.39717927
4.190911,0.39991168
4.195963,0.40315243
4.201026,0.4076692
4.206102,0.41441861
4.21119,0.42320364
4.216291,0.43251777
4.221404,0.44087593
4.226529,0.44761571
4.231666,0.45248679
4.236816,0.45590848
4.241979,0.45770625
4.247154,0.45570575
4.252341,0.44844684
4.257542,0.44359372
4.262754,0.4480358
4.26798,0.45695363
4.273219,0.46091792
4.27847,0.4611303
4.283734,0.4613829
4.289011,0.46263376
4.294301,0.46294744
4.299604,0.46214777
4.30492,0.4617595
4.31025,0.46062244
4.315592,0.45816757
4.320948,0.45635688
4.326317,0.45556316
4.331699,0.45457996
4.337095,0.45356727
4.342504,0.45309192
4.347926,0.45310835
4.353362,0.45329515
4.358811,0.4533461
4.364275,0.45310754
4.369751,0.45274834
4.375242,0.45251243
4.380746,0.4522252
4.386264,0.45173915
4.391796,0.45104729
4.397342,0.45016069
4.402902,0.44926089
4.408476,0.44852658
4.414064,0.4482099
4.419666,0.44859946
4.425282,0.44968179
4.430913,0.45100755
4.436558,0.45224536
4.442217,0.4531595
4.447891,0.45332159
4.453579,0.4528021
4.459281,0.452288
4.464998,0.45212466
4.47073,0.45191753
4.476477,0.45165592
4.482238,0.45218184
4.488014,0.45374901
4.493805,0.45608327
4.499611,0.45924467
4.505431,0.46253536
4.511267,0.46483521
4.517118,0.46614141
4.522984,0.46707319
4.528865,0.46758267
4.534762,0.46731905
4.540674,0.46694544
4.546601,0.46756709
4.552543,0.46910428
4.558502,0.47050448
4.564475,0.47106435
4.570465,0.47059256
4.57647,0.46922475
4.582491,0.46720504
4.588527,0.4651074
4.59458,0.46439077
4.600648,0.46528574
4.606732,0.46652173
4.612833,0.46678263
4.618949,0.465005
4.625082,0.46587834
4.631231,0.47243349
4.637397,0.47823934
4.643578,0.48036024
4.649777,0.48123132
4.655991,0.48070238
4.662223,0.47495409
4.668471,0.45590151
4.674735,0.43418709
4.681017,0.43821681
4.687315,0.45927055
4.69363,0.47133409
4.699962,0.47532744
4.706312,0.4774405
4.712678,0.47882414
4.719062,0.48090751
4.725463,0.48562148
4.731881,0.49332205
4.738316,0.5018784
4.744769,0.50922671
4.75124,0.51418703
4.757728,0.51649208
4.764234,0.51689168
4.770758,0.51620985
4.777299,0.51530002
4.783859,0.51523555
4.790436,0.51647137
4.797032,0.51928612
4.803645,0.52366239
4.810277,0.52914019
4.816927,0.53497001
4.823596,0.53979619
4.830283,0.54324077
4.836988,0.54647912
4.843712,0.54910293
4.850455,0.55024967
4.857216,0.55123117
4.863996,0.55267561
4.870795,0.55417628
4.877613,0.55560708
4.884451,0.55704949
4.891307,0.55891997
4.898182,0.56057974
4.905077,0.56114881
4.911991,0.56158543
4.918925,0.56255711
4.925878,0.56368881
4.932851,0.56510311
4.939844,0.56660451
4.946856,0.56828104
4.953888,0.57070839
4.960941,0.57167939
4.968013,0.57101858
4.975105,0.57137878
4.982218,0.57226068
4.989351,0.57296553
4.996504,0.57388499
5.003678,0.57468754
5.010872,0.57710626
5.018087,0.58125907
5.025323,0.58221942
5.03258,0.58055103
5.039857,0.5801487
5.047156,0.58091038
5.054475,0.58197992
5.061816,0.58289191
5.069179,0.58389813
5.076562,0.58691981
5.083967,0.58960013
5.091394,0.5883878
5.098842,0.58702299
5.106312,0.58740598
5.113804,0.58788186
5.121318,0.58844868
5.128854,0.58957934
5.136412,0.59281484
5.143992,0.59819193
5.151595,0.5981957
5.15922,0.59436528
5.166868,0.59493632
5.174538,0.59735123
5.182231,0.59832932
5.189947,0.60103083
5.197686,0.60609219
5.205448,0.61010672
5.213233,0.61108223
5.221041,0.60730142
5.228873,0.60612436
5.236728,0.60875347
5.244607,0.6080041
5.25251,0.60659858
5.260436,0.60693851
5.268386,0.60917239
5.27636,0.61168749
5.284358,0.61459665
5.292381,0.61661812
5.300428,0.61342513
5.308499,0.61068985
5.316595,0.61084741
5.324715,0.61099456
5.33286,0.61140761
5.341031,0.61975422
5.349226,0.63165264
5.357446,0.62619012
5.365692,0.61574694
5.373962,0.61403952
5.382259,0.61352764
5.390581,0.61217326
5.398928,0.61259851
5.407302,0.61811706
5.415701,0.630463
5.424127,0.63233913
5.432579,0.6190549
5.441057,0.6124938
5.449561,0.61274093
5.458092,0.61835632
5.46665,0.623431
5.475234,0.61484279
5.483846,0.59902881
5.492484,0.57938304
5.50115,0.55974095
5.509843,0.54284112
5.518564,0.53072345
5.527312,0.51334208
5.536087,0.49229574
5.544891,0.48099819
5.553723,0.47001956
5.562582,0.46363572
5.57147,0.52057431
5.580387,0.6738473
5.589332,0.77236076
5.598305,0.77633834
5.607307,0.75010429
5.616339,0.72506714
5.625399,0.70995952
5.634489,0.71772487
5.643607,0.72302696
5.652756,0.69946113
5.661934,0.67972347
5.671142,0.68146458
5.680379,0.68649861
5.689647,0.68335568
5.698945,0.68646352
5.708274,0.70437684
5.717633,0.70910186
5.727022,0.6976024
5.736443,0.69706967
5.745894,0.69844214
5.755377,0.70711924
5.76489,0.72185202
5.774436,0.70376576
5.784012,0.67947298
5.793621,0.67252021
5.803262,0.68003838
5.812934,0.71041331
5.822639,0.73410185
5.832376,0.70913674
5.842146,0.68769906
5.851948,0.69620102
5.861783,0.7149131
5.871652,0.73701295
5.881553,0.75737963
5.891488,0.74494773
5.901457,0.71350744
5.911459,0.7012917
5.921495,0.71864583
5.931565,0.75172873
5.94167,0.74330046
5.951809,0.71750595
5.961982,0.72091243
5.97219,0.73209484
5.982433,0.73843823
5.992711,0.72846306
6.003025,0.71831565
6.013374,0.71980994
6.023759,0.71452594
6.034179,0.73900708
6.044636,0.78147591
6.055129,0.77159907
6.065658,0.76387743
6.076224,0.75000135
6.086826,0.72718666
6.097466,0.741402
6.108143,0.76787656
6.118857,0.75153307
6.129609,0.73485845
6.140398,0.74380412
6.151226,0.75374065
6.162091,0.75123697
6.172996,0.7557095
6.183938,0.76121724
6.19492,0.74764398
6.20594,0.74272391
6.217,0.74544547
6.228099,0.74504821
6.239237,0.74528722
6.250416,0.74576235
6.261635,0.74891389
6.272893,0.75164972
6.284193,0.75224016
6.295533,0.75333248
6.306914,0.75572024
6.318336,0.76104047
6.329799,0.7786318
6.341304,0.79150298
6.352851,0.7869185
6.36444,0.79101284
6.376071,0.79024585
6.387745,0.788062
6.399461,0.81770008
6.411221,0.84984239
6.423023,0.82536087
6.434869,0.80201269
6.446759,0.79703175
6.458693,0.80250831
6.470671,0.82737628
6.482693,0.85402182
6.49476,0.83782585
6.506872,0.81838134
6.519029,0.81528486
6.531231,0.81275463
6.54348,0.82187822
6.555774,0.83925867
6.568114,0.84940778
6.580501,0.84691563
6.592934,0.83667414
6.605415,0.83291778
6.617943,0.8539621
6.630518,0.87051391
6.643141,0.84117446
6.655812,0.8274344
6.668532,0.83682959
6.6813,0.83383957
6.694117,0.8340783
6.706983,0.84525181
6.719899,0.83773569
6.732864,0.82519079
6.745879,0.82488435
6.758945,0.8331818
6.772062,0.8502073
6.785229,0.85346715
6.798448,0.83670473
6.811718,0.83351469
6.825039,0.83589984
6.838413,0.84304683
6.85184,0.86383477
6.865319,0.85679292
6.878851,0.83740093
6.892437,0.83599711
6.906076,0.83511368
6.919769,0.82925376
6.933517,0.83256145
6.947319,0.84615499
6.961176,0.84803585
6.975089,0.8416726
6.989057,0.8404426
7.003081,0.84024542
7.017161,0.84512404
7.031298,0.85754012
7.045492,0.86089348
7.059743,0.85060395
7.074052,0.84570514
7.088419,0.84749771
7.102845,0.85089206
7.117329,0.85303252
7.131872,0.85724614
7.146475,0.86527183
7.161137,0.86540868
7.17586,0.85935177
7.190643,0.8609037
7.205487,0.86317484
7.220393,0.85990022
7.23536,0.86039541
7.25039,0.86583257
7.265481,0.87112687
7.280636,0.87055481
7.295854,0.86814973
7.311135,0.87105811
7.326481,0.87683171
7.341891,0.87608068
7.357366,0.87227257
7.372906,0.87238608
7.388512,0.87340229
7.404184,0.87447584
7.419922,0.87563712
7.435728,0.87982698
7.451601,0.88704041
7.467541,0.88787169
7.48355,0.88360962
7.499628,0.88249054
7.515774,0.88382171
7.53199,0.88525311
7.548277,0.88729907
7.564633,0.89035473
7.581061,0.89262176
7.59756,0.89338808
7.614131,0.89333878
7.630774,0.89338104
7.647491,0.89418051
7.66428,0.89501735
7.681143,0.89597269
7.69808,0.89718676
7.715093,0.89832296
7.73218,0.89979852
7.749343,0.9011491
7.766583,0.90178354
7.783899,0.90265222
7.801292,0.90389185
7.818764,0.90506415
7.836313,0.90668955
7.853942,0.90849322
7.871649,0.90972895
7.889437,0.91097636
7.907305,0.91281107
7.925254,0.91445411
7.943285,0.91533828
7.961398,0.91620984
7.979594,0.91751851
7.997872,0.91903589
8.016235,0.92054766
8.034682,0.92185929
8.053214,0.92312441
8.071832,0.92455518
8.090535,0.92587107
8.109326,0.92687807
8.128204,0.92803464
8.147169,0.92934535
8.166224,0.93042879
8.185368,0.93132515
8.204601,0.93203934
8.223925,0.93277349
8.24334,0.93352641
8.262847,0.93428826
8.282446,0.93522267
8.302139,0.93611176
8.321925,0.93692624
8.341805,0.93780876
8.361781,0.93868852
8.381852,0.93942297
8.40202,0.9402815
8.422285,0.94128755
8.442648,0.94213139
8.463109,0.94281222
8.48367,0.94347368
8.504331,0.94434053
8.525092,0.9452043
8.545955,0.94590305
8.566921,0.9466187
8.587989,0.94724775
8.609161,0.94782692
8.630437,0.9484951
8.651819,0.94912526
8.673307,0.9496484
8.694902,0.95008432
8.716604,0.95057022
8.738415,0.9511796
8.760335,0.95176059
8.782365,0.95224871
8.804507,0.95274553
8.82676,0.95349386
8.849125,0.95426702
8.871604,0.95499665
8.894198,0.95586069
8.916907,0.9566221
8.939732,0.95742118
8.962673,0.9582937
8.985733,0.95910187
9.008912,0.95986575
9.03221,0.96042851
9.055629,0.96077768
9.07917,0.96101621
9.102833,0.96096578
9.12662,0.9601361
9.150531,0.95913906
9.174568,0.95940015
9.198731,0.96027231
9.223022,0.96069179
9.247441,0.96079414
9.27199,0.96024977
9.296669,0.95900379
9.32148,0.9583698
9.346423,0.95899423
9.3715,0.95979263
9.396712,0.96023987
9.42206,0.96066593
9.447545,0.96124506
9.473167,0.9617248
9.498929,0.96189305
9.524832,0.96218701
9.550876,0.96278124
9.577062,0.96343733
9.603393,0.9640894
9.629868,0.96456556
9.65649,0.96490162
9.683259,0.9652746
9.710176,0.96557731
9.737244,0.96598249
9.764463,0.96656957
9.791834,0.96692857
9.819359,0.96709463
9.847039,0.96746138
9.874875,0.96786978
9.902869,0.96801631
9.931022,0.96805565
9.959336,0.96814608
9.987811,0.9682704
10.016449,0.96849192
10.045252,0.96887865
10.074221,0.96933475
10.103357,0.96962131
10.132662,0.9698444
10.162137,0.97017934
10.191784,0.97041853
10.221604,0.97071594
10.2516,0.97126891
10.281771,0.97189773
10.312121,0.97252746
10.34265,0.97315325
10.37336,0.97366238
10.404253,0.97405172
10.435331,0.97437802
10.466594,0.97470726
10.498045,0.97517745
10.529686,0.97554981
10.561517,0.97562485
10.593542,0.97562798
10.625761,0.97586991
10.658176,0.9762985
10.69079,0.97658194
10.723604,0.9766945
10.756619,0.97686437
10.789839,0.97711429
10.823264,0.97725535
10.856896,0.97733529
10.890738,0.97742849
10.924791,0.97751966
10.959058,0.97767118
10.993541,0.97787092
11.02824,0.97793402
11.06316,0.97803155
11.098301,0.97833421
11.133665,0.97859327
11.169256,0.97879382
11.205075,0.97891925
11.241124,0.97900846
11.277405,0.97919395
11.313921,0.97941962
11.350675,0.97951607
11.387667,0.97964268
11.424901,0.97988705
11.46238,0.98002471
11.500105,0.98017901
11.538079,0.98042907
11.576304,0.98081201
11.614783,0.98101838
11.653518,0.98088153
11.692513,0.98095269
11.731769,0.98130058
11.77129,0.98171094
11.811077,0.98194979
11.851134,0.98216099
11.891464,0.98265459
11.932068,0.98311519
11.972951,0.98344514
12.014114,0.98377962
12.055562,0.98426767
12.097296,0.98493879
12.13932,0.98535754
12.181636,0.98562092
12.224249,0.98603349
12.26716,0.98626746
12.310373,0.9863638
12.353892,0.98664352
12.397719,0.98694817
12.441859,0.98709079
12.486313,0.98730574
12.531086,0.98757673
12.57618,0.98755178
12.621601,0.98738069
12.66735,0.9874652
12.713432,0.9876334
12.75985,0.98766407
12.806608,0.98760092
12.85371,0.98754185
12.901159,0.98763425
12.94896,0.98781345
12.997116,0.98818864
13.045631,0.9886738
13.09451,0.98898503
13.143756,0.98921766
13.193373,0.98950168
13.243366,0.98972224
13.29374,0.98988599
13.344497,0.99012548
13.395644,0.99036926
13.447183,0.99069143
13.499121,0.9911462
13.551461,0.99171285
13.604208,0.99212105
13.657367,0.99245406
13.710943,0.99286375
13.764941,0.9930556
13.819365,0.99305057
13.874221,0.99298297
13.929515,0.99288992
13.98525,0.9926917
14.041433,0.99246619
14.098068,0.99219943
14.155163,0.99218688
14.212721,0.99215024
14.270749,0.99189565
14.329252,0.99208114
14.388237,0.99256843
14.447709,0.99272268
14.507674,0.99245413
14.568139,0.99226014
14.629109,0.99224241
14.690592,0.99243856
14.752594,0.99214796
14.815121,0.99138725
14.878179,0.99138331
14.941777,0.99165032
15.00592,0.9917959
15.070616,0.99160642
15.135871,0.99167283
15.201695,0.99241427
15.268092,0.9919263
15.335072,0.98923708
15.402642,0.98487008
15.47081,0.98036025
15.539583,0.97506855
15.60897,0.97010442
15.678979,0.96282131
15.749619,0.94602591
15.820897,0.93006092
15.892824,0.9177249
15.965407,0.89107809
