Database of Origin,University of Winnipeg Spectrophotometer Facility
Sample Description,See Master Clays in HOSERLab database
Date Added,2016-12-11 20:56:55.106981

Data ID,FTIR_CLAY_02        
Sample ID,BER102
Mineral Name,Berthierine
Grain Size,<45 m
Viewing Geometry,35/0
Resolution,11-72 nm
Material Class,Phyllosilicate

Wavelength
2001.142,0.40572635
2002.307,0.40589169
2003.474,0.40605411
2004.643,0.40620327
2005.812,0.40655451
2006.983,0.40716338
2008.155,0.40753839
2009.329,0.40786446
2010.504,0.40839318
2011.68,0.40898241
2012.858,0.40927971
2014.037,0.40931757
2015.217,0.40959361
2016.399,0.41022649
2017.582,0.41062263
2018.766,0.41066905
2019.952,0.41094252
2021.139,0.41147512
2022.328,0.41191436
2023.518,0.41222917
2024.709,0.41261207
2025.902,0.41297529
2027.096,0.41328878
2028.291,0.41361206
2029.488,0.41388068
2030.686,0.4143563
2031.886,0.41519492
2033.087,0.41582639
2034.289,0.41603458
2035.493,0.41623163
2036.698,0.41655172
2037.905,0.41674135
2039.113,0.41687777
2040.322,0.4172833
2041.533,0.41758344
2042.746,0.41767749
2043.959,0.4180115
2045.174,0.41860235
2046.391,0.4190987
2047.609,0.41920868
2048.828,0.41919623
2050.049,0.41937407
2051.271,0.41957905
2052.495,0.41984939
2053.72,0.41997467
2054.947,0.42010927
2056.175,0.42075304
2057.404,0.4211786
2058.635,0.42128087
2059.867,0.42154315
2061.101,0.42195095
2062.336,0.42224014
2063.573,0.42234744
2064.811,0.42272408
2066.051,0.42284928
2067.292,0.42253735
2068.534,0.42274271
2069.778,0.4234105
2071.024,0.42374508
2072.271,0.4236803
2073.519,0.4237471
2074.769,0.42414149
2076.02,0.42482058
2077.273,0.42526369
2078.528,0.42535212
2079.784,0.42579502
2081.041,0.42604671
2082.3,0.4259695
2083.56,0.42642627
2084.822,0.42715679
2086.085,0.42740812
2087.35,0.42743042
2088.617,0.42762698
2089.885,0.42786866
2091.154,0.42814734
2092.425,0.42819404
2093.697,0.42804069
2094.971,0.42806546
2096.247,0.42827952
2097.524,0.4287659
2098.803,0.4291011
2100.083,0.42885684
2101.364,0.42897986
2102.648,0.42971075
2103.932,0.43030221
2105.219,0.43067303
2106.506,0.4305819
2107.796,0.4303177
2109.087,0.43055879
2110.379,0.43099043
2111.673,0.43158581
2112.969,0.4321767
2114.266,0.43231563
2115.565,0.43236538
2116.865,0.43255008
2118.167,0.4327572
2119.471,0.43294567
2120.776,0.43314
2122.082,0.43328004
2123.391,0.43331217
2124.7,0.43331632
2126.012,0.43314059
2127.325,0.43263309
2128.64,0.43213091
2129.956,0.43217192
2131.274,0.43262897
2132.593,0.43303694
2133.914,0.4333273
2135.237,0.43322189
2136.561,0.43305935
2137.887,0.43328729
2139.214,0.43358499
2140.544,0.43391859
2141.874,0.43396181
2143.207,0.43383745
2144.541,0.43388816
2145.876,0.43376137
2147.214,0.43371415
2148.553,0.43406219
2149.893,0.43425679
2151.235,0.434294
2152.579,0.43431267
2153.925,0.43399256
2155.272,0.43367367
2156.621,0.43340481
2157.972,0.4330496
2159.324,0.43291899
2160.678,0.43299838
2162.033,0.43315916
2163.39,0.43338273
2164.749,0.43360925
2166.11,0.43360183
2167.472,0.43357419
2168.836,0.43379158
2170.202,0.43363926
2171.569,0.43318555
2172.938,0.43302703
2174.309,0.43301054
2175.682,0.43301298
2177.056,0.43313301
2178.432,0.43317387
2179.809,0.43298294
2181.189,0.43292888
2182.57,0.4328644
2183.952,0.43218329
2185.337,0.43149547
2186.723,0.43136341
2188.111,0.43131783
2189.501,0.43121272
2190.892,0.43123332
2192.285,0.43100767
2193.68,0.4303512
2195.077,0.42997745
2196.476,0.43003151
2197.876,0.42996614
2199.278,0.42971256
2200.682,0.4294653
2202.087,0.42911618
2203.494,0.42847947
2204.903,0.42804861
2206.314,0.4278674
2207.727,0.42771337
2209.141,0.42766685
2210.557,0.42751006
2211.975,0.4272179
2213.395,0.42672123
2214.817,0.42617652
2216.24,0.42564256
2217.665,0.42539784
2219.092,0.42530439
2220.521,0.42469216
2221.952,0.42425944
2223.384,0.42397138
2224.818,0.42336374
2226.254,0.42289404
2227.692,0.42226886
2229.132,0.42143481
2230.574,0.42074063
2232.017,0.42010105
2233.462,0.41944306
2234.91,0.4187702
2236.359,0.41797221
2237.809,0.4171479
2239.262,0.41655438
2240.717,0.41579013
2242.173,0.41487274
2243.631,0.41387237
2245.092,0.41252935
2246.554,0.41131889
2248.017,0.41034177
2249.483,0.40931438
2250.951,0.40840393
2252.421,0.40768651
2253.892,0.40681888
2255.365,0.40601637
2256.841,0.40588187
2258.318,0.40588512
2259.797,0.40504649
2261.278,0.40373468
2262.761,0.40282429
2264.246,0.4024418
2265.732,0.40194876
2267.221,0.40119385
2268.712,0.40045766
2270.204,0.39957847
2271.699,0.3988554
2273.195,0.39840094
2274.694,0.39788998
2276.194,0.39731371
2277.696,0.39658193
2279.201,0.39570835
2280.707,0.3951406
2282.215,0.39455654
2283.725,0.39389946
2285.237,0.39350456
2286.752,0.39304915
2288.268,0.39247802
2289.786,0.39187576
2291.306,0.39125555
2292.828,0.39078429
2294.352,0.390518
2295.878,0.39039591
2297.406,0.39011351
2298.936,0.3894067
2300.468,0.38865155
2302.002,0.38830166
2303.539,0.38830525
2305.077,0.38829188
2306.617,0.38812529
2308.159,0.38791694
2309.703,0.38775236
2311.25,0.38761355
2312.798,0.38742566
2314.348,0.38722305
2315.901,0.38678728
2317.455,0.38607674
2319.012,0.38552828
2320.571,0.38503428
2322.131,0.38463175
2323.694,0.38438656
2325.259,0.38432827
2326.826,0.38442212
2328.395,0.3839666
2329.966,0.38296228
2331.54,0.38190442
2333.115,0.38118076
2334.692,0.38069289
2336.272,0.38032617
2337.854,0.38014309
2339.437,0.37971443
2341.023,0.37912317
2342.611,0.37869186
2344.201,0.37826378
2345.794,0.37770706
2347.388,0.37711738
2348.985,0.37669548
2350.583,0.37643012
2352.184,0.37600893
2353.787,0.37555399
2355.393,0.37540391
2357.0,0.37536013
2358.609,0.375256
2360.221,0.37524514
2361.835,0.37529771
2363.451,0.37526125
2365.069,0.37528692
2366.69,0.37548217
2368.312,0.37563105
2369.937,0.37547218
2371.564,0.37530917
2373.194,0.37534344
2374.825,0.37549479
2376.459,0.37606712
2378.095,0.3765648
2379.733,0.37645392
2381.373,0.37627109
2383.016,0.37630732
2384.661,0.3764799
2386.308,0.37667439
2387.957,0.37665042
2389.609,0.37644136
2391.263,0.3762957
2392.919,0.37638879
2394.577,0.37673118
2396.238,0.37680437
2397.901,0.3765296
2399.566,0.37659486
2401.233,0.37689673
2402.903,0.3769151
2404.575,0.37657397
2406.25,0.37617457
2407.926,0.37606623
2409.606,0.37603988
2411.287,0.37576802
2412.971,0.37543746
2414.657,0.37507962
2416.345,0.37475828
2418.036,0.37468354
2419.729,0.37454141
2421.424,0.37424106
2423.122,0.37399199
2424.822,0.37371029
2426.524,0.37342614
2428.229,0.37299635
2429.936,0.37248274
2431.646,0.37220886
2433.358,0.37184257
2435.072,0.37129506
2436.789,0.37082478
2438.508,0.37048767
2440.229,0.37019649
2441.953,0.36973
2443.679,0.36921739
2445.408,0.36888698
2447.139,0.36854872
2448.873,0.3678363
2450.609,0.3669173
2452.347,0.36645289
2454.088,0.36609749
2455.831,0.36536259
2457.577,0.36469122
2459.325,0.36415504
2461.076,0.3633868
2462.829,0.36254855
2464.585,0.36185966
2466.343,0.36129486
2468.104,0.36072783
2469.867,0.36000495
2471.632,0.35930282
2473.4,0.35849137
2475.171,0.35766055
2476.944,0.3570976
2478.72,0.35662866
2480.498,0.35607423
2482.278,0.35536833
2484.062,0.3545139
2485.847,0.35368374
2487.636,0.35327007
2489.427,0.35313036
2491.22,0.35266663
2493.016,0.35185937
2494.814,0.35110063
2496.615,0.35047299
2498.419,0.35001849
2500.225,0.34968017
2502.034,0.3492343
2503.845,0.34886149
2505.659,0.34843506
2507.476,0.34791708
2509.295,0.34756539
2511.117,0.34720838
2512.942,0.34705266
2514.769,0.34704375
2516.598,0.34672717
2518.431,0.3463739
2520.266,0.34615118
2522.103,0.34610537
2523.944,0.34614512
2525.787,0.34572623
2527.632,0.34512703
2529.48,0.34524842
2531.331,0.34602727
2533.185,0.34631521
2535.041,0.34595254
2536.9,0.34544023
2538.762,0.34476404
2540.627,0.34481508
2542.494,0.34572465
2544.364,0.34573956
2546.236,0.34547922
2548.112,0.34570731
2549.99,0.34603342
2551.87,0.34634095
2553.754,0.34538704
2555.64,0.34394696
2557.529,0.34401471
2559.421,0.34671004
2561.316,0.3508753
2563.213,0.35137534
2565.113,0.34751723
2567.016,0.34537733
2568.922,0.34599829
2570.831,0.3462828
2572.742,0.34667009
2574.656,0.34737557
2576.573,0.34681092
2578.493,0.34529118
2580.416,0.34512054
2582.342,0.34734678
2584.27,0.34794549
2586.201,0.34641047
2588.135,0.34501728
2590.072,0.34250866
2592.012,0.34328739
2593.955,0.3516233
2595.9,0.35158257
2597.849,0.34206074
2599.8,0.33909903
2601.755,0.34123395
2603.712,0.34461979
2605.672,0.34557487
2607.635,0.34211232
2609.601,0.33866544
2611.57,0.33656055
2613.542,0.33594906
2615.517,0.3383454
2617.495,0.34050338
2619.475,0.33941631
2621.459,0.33563872
2623.446,0.33178321
2625.435,0.33167546
2627.428,0.33346354
2629.424,0.33490259
2631.423,0.33431879
2633.424,0.33030474
2635.429,0.32632265
2637.437,0.32361516
2639.447,0.32246741
2641.461,0.32201781
2643.478,0.32152504
2645.498,0.32083982
2647.521,0.31838824
2649.547,0.31629998
2651.576,0.31650391
2653.609,0.31622865
2655.644,0.31344675
2657.682,0.31101976
2659.724,0.31024255
2661.768,0.3089844
2663.816,0.31072948
2665.867,0.31538815
2667.921,0.31420891
2669.978,0.3117054
2672.038,0.30440747
2674.102,0.29780889
2676.168,0.2995785
2678.238,0.29849242
2680.311,0.28801504
2682.387,0.28099613
2684.467,0.27750101
2686.549,0.27195681
2688.635,0.26377022
2690.724,0.25683438
2692.816,0.25471958
2694.911,0.25097571
2697.01,0.23825219
2699.112,0.22858997
2701.217,0.22370689
2703.325,0.21696555
2705.437,0.21007267
2707.552,0.20849023
2709.67,0.21236944
2711.791,0.20685969
2713.916,0.19140931
2716.044,0.18080743
2718.175,0.18063054
2720.31,0.18570093
2722.448,0.17784022
2724.589,0.16279166
2726.734,0.14324324
2728.882,0.12591053
2731.034,0.11428429
2733.188,0.10605234
2735.347,0.09721575
2737.508,0.08913566
2739.673,0.08643535
2741.841,0.07712837
2744.013,0.06311874
2746.188,0.05467697
2748.367,0.04961608
2750.549,0.04573694
2752.734,0.04351783
2754.923,0.04405116
2757.115,0.04153219
2759.311,0.03661938
2761.51,0.03505807
2763.713,0.03495573
2765.919,0.0339725
2768.129,0.03323366
2770.342,0.03255681
2772.559,0.03048485
2774.779,0.02830132
2777.003,0.02761051
2779.23,0.02755531
2781.461,0.02755552
2783.696,0.02740486
2785.934,0.02788302
2788.175,0.02815897
2790.42,0.0264606
2792.669,0.02550812
2794.922,0.02565726
2797.178,0.02548206
2799.437,0.02509012
2801.7,0.02607748
2803.967,0.02760029
2806.238,0.02637015
2808.512,0.0249
2810.789,0.02438347
2813.071,0.02428634
2815.356,0.02454602
2817.645,0.02466559
2819.937,0.02521251
2822.233,0.02555825
2824.533,0.02490745
2826.837,0.02454948
2829.144,0.02449982
2831.455,0.02441856
2833.77,0.02467351
2836.089,0.0250769
2838.411,0.02507347
2840.737,0.02445555
2843.067,0.02365079
2845.401,0.02339783
2847.739,0.02346732
2850.08,0.02353529
2852.425,0.02365314
2854.774,0.02356939
2857.127,0.02324494
2859.484,0.02333943
2861.844,0.02352744
2864.209,0.02329287
2866.577,0.02333089
2868.949,0.02354336
2871.325,0.02347769
2873.705,0.02310672
2876.089,0.02247611
2878.477,0.02226896
2880.869,0.02254213
2883.265,0.0222886
2885.664,0.02202784
2888.068,0.02250016
2890.476,0.02279962
2892.887,0.02233307
2895.303,0.02193607
2897.723,0.02179296
2900.146,0.02158945
2902.574,0.02148807
2905.006,0.02136907
2907.441,0.02116657
2909.881,0.02100652
2912.325,0.02096246
2914.773,0.02128478
2917.225,0.02171752
2919.681,0.02170013
2922.142,0.0214773
2924.606,0.02117044
2927.075,0.02074275
2929.547,0.02062079
2932.024,0.02061963
2934.505,0.02063931
2936.99,0.02085537
2939.479,0.02106168
2941.973,0.02101509
2944.471,0.02119766
2946.973,0.02194222
2949.479,0.02194735
2951.989,0.02120663
2954.504,0.02149885
2957.023,0.02185809
2959.546,0.02135732
2962.073,0.02104533
2964.605,0.02101015
2967.141,0.02117384
2969.681,0.02134209
2972.226,0.02163742
2974.775,0.02249341
2977.328,0.02283325
2979.886,0.02232931
2982.448,0.02186594
2985.015,0.02168488
2987.586,0.02176301
2990.161,0.02242117
2992.74,0.02306301
2995.324,0.02278861
2997.913,0.02244443
3000.506,0.02296456
3003.103,0.02352012
3005.705,0.02322925
3008.312,0.02274498
3010.922,0.02299593
3013.538,0.02362278
3016.158,0.02376942
3018.782,0.02370937
3021.411,0.02389282
3024.044,0.02398394
3026.683,0.02431741
3029.325,0.02552487
3031.972,0.02707759
3034.624,0.02705105
3037.281,0.0256992
3039.942,0.02533351
3042.607,0.0262052
3045.278,0.02678266
3047.953,0.02634466
3050.632,0.02570084
3053.317,0.02565303
3056.006,0.02601819
3058.7,0.02638464
3061.398,0.02691659
3064.101,0.0279413
3066.809,0.02845335
3069.522,0.02787048
3072.239,0.02737562
3074.962,0.02748395
3077.689,0.02789953
3080.421,0.02823385
3083.157,0.02818062
3085.899,0.02853952
3088.645,0.02923898
3091.396,0.02928413
3094.153,0.02901694
3096.914,0.02913941
3099.679,0.03004495
3102.45,0.03061366
3105.226,0.03008876
3108.007,0.02995344
3110.792,0.03018066
3113.583,0.03031132
3116.378,0.03052031
3119.179,0.03071001
3121.985,0.03089702
3124.795,0.03106097
3127.611,0.03126665
3130.431,0.0316541
3133.257,0.03184314
3136.088,0.0319441
3138.924,0.03224302
3141.765,0.03260843
3144.611,0.03307523
3147.462,0.03338127
3150.319,0.03363762
3153.18,0.03418302
3156.047,0.03470236
3158.919,0.03498763
3161.796,0.03513499
3164.678,0.03532477
3167.566,0.03564928
3170.458,0.03624039
3173.356,0.03695118
3176.26,0.03758148
3179.168,0.03897802
3182.082,0.04024344
3185.001,0.03988602
3187.926,0.03929453
3190.856,0.03976162
3193.791,0.04111424
3196.731,0.04179518
3199.677,0.04149105
3202.629,0.04185729
3205.585,0.0426648
3208.548,0.04315958
3211.515,0.04465607
3214.488,0.04741605
3217.467,0.048986
3220.451,0.04817156
3223.441,0.04744857
3226.436,0.04814493
3229.437,0.0483758
3232.443,0.04842334
3235.455,0.04921218
3238.472,0.04983695
3241.495,0.05059375
3244.523,0.05193028
3247.558,0.05315278
3250.598,0.05442923
3253.643,0.05602041
3256.694,0.05754883
3259.751,0.05777041
3262.814,0.05663371
3265.882,0.05673272
3268.956,0.05836681
3272.036,0.05939668
3275.122,0.05950458
3278.213,0.05998621
3281.31,0.06104188
3284.413,0.06218686
3287.522,0.06313243
3290.637,0.06386372
3293.757,0.06540205
3296.884,0.06711743
3300.016,0.06708375
3303.155,0.06700077
3306.299,0.06805937
3309.449,0.06856926
3312.605,0.06885795
3315.767,0.06975119
3318.936,0.07060068
3322.11,0.0715526
3325.29,0.07354891
3328.476,0.07583425
3331.669,0.07613974
3334.867,0.07485953
3338.072,0.07438219
3341.282,0.07492102
3344.499,0.07595
3347.722,0.07716985
3350.952,0.07820315
3354.187,0.07835253
3357.429,0.0778124
3360.677,0.07816941
3363.931,0.07939144
3367.191,0.08005465
3370.458,0.07998926
3373.731,0.07979135
3377.01,0.0795177
3380.296,0.0799848
3383.588,0.08124081
3386.886,0.08241224
3390.191,0.0832174
3393.502,0.08413819
3396.82,0.08536624
3400.144,0.08607138
3403.475,0.08700156
3406.812,0.08792529
3410.156,0.0871675
3413.506,0.08609645
3416.862,0.08620831
3420.226,0.08742308
3423.596,0.08950919
3426.972,0.09126142
3430.355,0.09248906
3433.745,0.09423657
3437.141,0.096855
3440.545,0.10002237
3443.954,0.10199865
3447.371,0.10193647
3450.794,0.10193433
3454.224,0.10285013
3457.661,0.10381316
3461.105,0.10512528
3464.556,0.10648845
3468.013,0.10689762
3471.477,0.10696479
3474.948,0.10743978
3478.426,0.10807513
3481.911,0.10872947
3485.403,0.10958027
3488.902,0.11148199
3492.408,0.11323025
3495.921,0.11288701
3499.441,0.11218188
3502.968,0.11271444
3506.502,0.11434255
3510.043,0.1165059
3513.592,0.11869202
3517.147,0.1210514
3520.71,0.12355239
3524.28,0.12578202
3527.857,0.12745296
3531.441,0.12979811
3535.032,0.13232793
3538.631,0.13307855
3542.237,0.13334671
3545.851,0.13433151
3549.471,0.13551844
3553.099,0.13677229
3556.735,0.13808484
3560.378,0.13938916
3564.028,0.14068793
3567.686,0.14222989
3571.351,0.14375787
3575.024,0.14481113
3578.704,0.14579189
3582.392,0.14721574
3586.088,0.148866
3589.791,0.15017506
3593.501,0.15142208
3597.22,0.15280479
3600.946,0.15351427
3604.679,0.15404278
3608.421,0.15511634
3612.17,0.15662194
3615.926,0.15826984
3619.691,0.15923562
3623.463,0.15990636
3627.244,0.1608512
3631.032,0.16174053
3634.828,0.16275048
3638.632,0.16401727
3642.444,0.16517303
3646.263,0.16642597
3650.091,0.16807579
3653.927,0.16927799
3657.771,0.16986983
3661.623,0.17079232
3665.483,0.17218325
3669.351,0.17339242
3673.227,0.17426315
3677.111,0.17552608
3681.004,0.17733499
3684.905,0.17876251
3688.814,0.1796046
3692.731,0.18053679
3696.656,0.18170145
3700.59,0.18292388
3704.532,0.18430696
3708.483,0.18566151
3712.442,0.18684854
3716.409,0.18808806
3720.385,0.18938377
3724.37,0.19061969
3728.362,0.19176263
3732.364,0.19298706
3736.374,0.19436994
3740.392,0.1959312
3744.419,0.19760109
3748.455,0.1989047
3752.499,0.19980756
3756.553,0.20069633
3760.614,0.20187987
3764.685,0.20326239
3768.764,0.20448531
3772.853,0.20561145
3776.95,0.20658085
3781.056,0.20741612
3785.17,0.20835911
3789.294,0.20942544
3793.427,0.21049085
3797.568,0.21147985
3801.719,0.21262048
3805.879,0.21366641
3810.048,0.21437557
3814.225,0.21523553
3818.412,0.21619122
3822.609,0.21694733
3826.814,0.21775875
3831.029,0.21864285
3835.252,0.21950108
3839.486,0.22021571
3843.728,0.22073943
3847.98,0.22146535
3852.241,0.22248676
3856.512,0.22361859
3860.792,0.22480126
3865.081,0.2259217
3869.38,0.22692717
3873.689,0.22788337
3878.007,0.22872862
3882.334,0.22954943
3886.672,0.23046018
3891.019,0.23136297
3895.375,0.23237115
3899.742,0.23336806
3904.118,0.23419197
3908.504,0.23512545
3912.9,0.23608926
3917.305,0.2368503
3921.721,0.23746604
3926.146,0.23802792
3930.581,0.23869213
3935.027,0.23928408
3939.482,0.23967189
3943.948,0.24006309
3948.423,0.24044002
3952.909,0.24057286
3957.405,0.24053384
3961.911,0.24078131
3966.427,0.24120596
3970.954,0.2415512
3975.491,0.24211404
3980.038,0.24299394
3984.595,0.24393623
3989.163,0.24491769
3993.742,0.24627561
3998.33,0.24812663
4002.93,0.25017697
4007.54,0.25236929
4012.16,0.25462174
4016.791,0.25665384
4021.433,0.25854386
4026.086,0.26039189
4030.749,0.262324
4035.423,0.2643841
4040.108,0.26642486
4044.804,0.26854133
4049.51,0.27064714
4054.228,0.27255633
4058.956,0.27449288
4063.695,0.27659128
4068.446,0.27862453
4073.207,0.28050761
4077.98,0.28229076
4082.764,0.28408962
4087.559,0.28584547
4092.365,0.28711378
4097.183,0.2884015
4102.012,0.29023101
4106.852,0.2920697
4111.703,0.29369431
4116.566,0.29525736
4121.441,0.29679043
4126.327,0.29836382
4131.224,0.30004255
4136.133,0.30168517
4141.054,0.30336423
4145.987,0.30526135
4150.931,0.30719758
4155.887,0.30893995
4160.854,0.31057924
4165.834,0.31221916
4170.826,0.31376957
4175.829,0.31529642
4180.844,0.31707056
4185.872,0.31909869
4190.911,0.32166165
4195.963,0.32611978
4201.026,0.33397157
4206.102,0.34584786
4211.19,0.36122779
4216.291,0.37859052
4221.404,0.39619062
4226.529,0.41226182
4231.666,0.4250729
4236.816,0.43259999
4241.979,0.43240555
4247.154,0.42350672
4252.341,0.40373391
4257.542,0.38794934
4262.754,0.39354958
4267.98,0.41164235
4273.219,0.4204885
4278.47,0.42143574
4283.734,0.42153485
4289.011,0.42250967
4294.301,0.4219875
4299.604,0.41917103
4304.92,0.4167422
4310.25,0.41314196
4315.592,0.40741801
4320.948,0.40216685
4326.317,0.39831343
4331.699,0.39493846
4337.095,0.39221916
4342.504,0.39042641
4347.926,0.38947306
4353.362,0.38919161
4358.811,0.38945826
4364.275,0.39017764
4369.751,0.39105594
4375.242,0.3920183
4380.746,0.39336149
4386.264,0.39553269
4391.796,0.39810856
4397.342,0.40039582
4402.902,0.40261028
4408.476,0.40481207
4414.064,0.40693693
4419.666,0.40908382
4425.282,0.41103635
4430.913,0.41290701
4436.558,0.41476774
4442.217,0.41654055
4447.891,0.41843735
4453.579,0.42042415
4459.281,0.42237021
4464.998,0.42417698
4470.73,0.42582886
4476.477,0.42748538
4482.238,0.42897713
4488.014,0.43038575
4493.805,0.43213529
4499.611,0.43395221
4505.431,0.43532726
4511.267,0.43656143
4517.118,0.43823068
4522.984,0.4399682
4528.865,0.44176421
4534.762,0.44397007
4540.674,0.44574848
4546.601,0.44678823
4552.543,0.44812623
4558.502,0.4500818
4564.475,0.45186912
4570.465,0.45360387
4576.47,0.45549704
4582.491,0.45723816
4588.527,0.45900913
4594.58,0.4606508
4600.648,0.46198211
4606.732,0.46340273
4612.833,0.46526773
4618.949,0.46711117
4625.082,0.4686915
4631.231,0.47047265
4637.397,0.47236323
4643.578,0.4739739
4649.777,0.4754347
4655.991,0.47713817
4662.223,0.47916267
4668.471,0.48107563
4674.735,0.48288601
4681.017,0.48518899
4687.315,0.48731047
4693.63,0.48884667
4699.962,0.49087962
4706.312,0.4931045
4712.678,0.49499701
4719.062,0.49696761
4725.463,0.49892751
4731.881,0.50049624
4738.316,0.50204365
4744.769,0.5040683
4751.24,0.50618251
4757.728,0.50807456
4764.234,0.51005839
4770.758,0.51242353
4777.299,0.51487196
4783.859,0.51707202
4790.436,0.51871573
4797.032,0.51966332
4803.645,0.52044289
4810.277,0.52174444
4816.927,0.52348947
4823.596,0.52516405
4830.283,0.52681586
4836.988,0.52927012
4843.712,0.53161353
4850.455,0.53247968
4857.216,0.53327863
4863.996,0.53482582
4870.795,0.53656875
4877.613,0.53831684
4884.451,0.53998142
4891.307,0.54212369
4898.182,0.54442937
4905.077,0.54563524
4911.991,0.5464878
4918.925,0.54777572
4925.878,0.54922704
4932.851,0.55092141
4939.844,0.55256457
4946.856,0.55466821
4953.888,0.5580343
4960.941,0.55955244
4968.013,0.55881206
4975.105,0.5595178
4982.218,0.56110531
4989.351,0.56241949
4996.504,0.56404298
5003.678,0.56537751
5010.872,0.56836369
5018.087,0.57370722
5025.323,0.57523546
5032.58,0.57319957
5039.857,0.57287475
5047.156,0.57422898
5054.475,0.57595086
5061.816,0.57773871
5069.179,0.57971074
5076.562,0.5836959
5083.967,0.58735111
5091.394,0.58687045
5098.842,0.58652903
5106.312,0.58836106
5113.804,0.59018046
5121.318,0.59133958
5128.854,0.59262339
5136.412,0.59692432
5143.992,0.60406961
5151.595,0.60461127
5159.22,0.59988139
5166.868,0.59952234
5174.538,0.60118779
5182.231,0.60185494
5189.947,0.60517093
5197.686,0.61143625
5205.448,0.61677527
5213.233,0.61884915
5221.041,0.61454072
5228.873,0.61276898
5236.728,0.61631234
5244.607,0.61609983
5252.51,0.61494662
5260.436,0.61593249
5268.386,0.61910274
5276.36,0.62252143
5284.358,0.62647024
5292.381,0.63003262
5300.428,0.62742286
5308.499,0.62489032
5316.595,0.62600631
5324.715,0.62728991
5332.86,0.62877156
5341.031,0.63907198
5349.226,0.65379246
5357.446,0.64923498
5365.692,0.63802552
5373.962,0.6370647
5382.259,0.63825431
5390.581,0.6385521
5398.928,0.64075559
5407.302,0.64875756
5415.701,0.66574901
5424.127,0.67237407
5432.579,0.6603542
5441.057,0.65620118
5449.561,0.66254835
5458.092,0.67694425
5466.65,0.69375788
5475.234,0.69708685
5483.846,0.69432585
5492.484,0.69305112
5501.15,0.70135912
5509.843,0.71776092
5518.564,0.74226676
5527.312,0.76796372
5536.087,0.79767091
5544.891,0.86562728
5553.723,0.9255768
5562.582,0.85020707
5571.47,0.61964547
5580.387,0.46643202
5589.332,0.45247333
5598.305,0.47180651
5607.307,0.49183845
5616.339,0.51078372
5625.399,0.5287933
5634.489,0.54821792
5643.607,0.56266034
5652.756,0.56545314
5661.934,0.56745793
5671.142,0.57658536
5680.379,0.58593382
5689.647,0.5894636
5698.945,0.59444023
5708.274,0.60622988
5717.633,0.61285518
5727.022,0.61225079
5736.443,0.61522556
5745.894,0.61825882
5755.377,0.62608804
5764.89,0.63822726
5774.436,0.63346319
5784.012,0.62211006
5793.621,0.61914845
5803.262,0.62543444
5812.934,0.64410429
5822.639,0.65854837
5832.376,0.64785199
5842.146,0.6372348
5851.948,0.64316386
5861.783,0.65495299
5871.652,0.66905737
5881.553,0.68178746
5891.488,0.67546214
5901.457,0.65798106
5911.459,0.65140194
5921.495,0.66306624
5931.565,0.68429422
5941.67,0.6809633
5951.809,0.66569962
5961.982,0.66886913
5972.19,0.6774764
5982.433,0.68243656
5992.711,0.67644218
6003.025,0.66983663
6013.374,0.67116064
6023.759,0.66794533
6034.179,0.68404582
6044.636,0.71034575
6055.129,0.70533171
6065.658,0.70195012
6076.224,0.69439625
6086.826,0.67905086
6097.466,0.68888918
6108.143,0.70755751
6118.857,0.69733156
6129.609,0.68546933
6140.398,0.6917582
6151.226,0.6994622
6162.091,0.69931733
6172.996,0.70325871
6183.938,0.70789098
6194.92,0.69982502
6205.94,0.69685243
6217.0,0.69935974
6228.099,0.69996718
6239.237,0.70100663
6250.416,0.70166221
6261.635,0.70380543
6272.893,0.70563118
6284.193,0.70609902
6295.533,0.70717361
6306.914,0.70839403
6318.336,0.71098562
6329.799,0.72356888
6341.304,0.73317737
6352.851,0.73016731
6364.44,0.73417902
6376.071,0.73449248
6387.745,0.73290318
6399.461,0.75524312
6411.221,0.77930302
6423.023,0.76381739
6434.869,0.7467146
6446.759,0.74337152
6458.693,0.74811117
6470.671,0.76713132
6482.693,0.78733533
6494.76,0.7775776
6506.872,0.76377109
6519.029,0.76208945
6531.231,0.76011877
6543.48,0.76655462
6555.774,0.78001517
6568.114,0.78806523
6580.501,0.78614141
6592.934,0.7784454
6605.415,0.77499134
6617.943,0.79026934
6630.518,0.80361157
6643.141,0.78183649
6655.812,0.76963232
6668.532,0.77766738
6681.3,0.77565368
6694.117,0.77545457
6706.983,0.78500305
6719.899,0.77900509
6732.864,0.76774706
6745.879,0.76726266
6758.945,0.77447907
6772.062,0.78892962
6785.229,0.79274817
6798.448,0.77935837
6811.718,0.77674521
6825.039,0.77913946
6838.413,0.7846942
6851.84,0.8021096
6865.319,0.79747933
6878.851,0.78117174
6892.437,0.78018863
6906.076,0.78017387
6919.769,0.77556835
6933.517,0.77867255
6947.319,0.79106155
6961.176,0.79290109
6975.089,0.787111
6989.057,0.78695724
7003.081,0.78754912
7017.161,0.79121761
7031.298,0.80084027
7045.492,0.80281731
7059.743,0.79376073
7074.052,0.7897202
7088.419,0.79171532
7102.845,0.79517937
7117.329,0.79767084
7131.872,0.80191372
7146.475,0.80952608
7161.137,0.8104647
7175.86,0.80557708
7190.643,0.8070671
7205.487,0.80912802
7220.393,0.80608883
7235.36,0.80647043
7250.39,0.81134268
7265.481,0.81609875
7280.636,0.81578391
7295.854,0.81365576
7311.135,0.81634101
7326.481,0.82193937
7341.891,0.82158151
7357.366,0.81798827
7372.906,0.81783677
7388.512,0.81878992
7404.184,0.81979397
7419.922,0.82048035
7435.728,0.82346953
7451.601,0.82914313
7467.541,0.82982992
7483.55,0.82653118
7499.628,0.82585111
7515.774,0.82682837
7531.99,0.82775504
7548.277,0.82950747
7564.633,0.83213864
7581.061,0.83380172
7597.56,0.83429171
7614.131,0.83453891
7630.774,0.83494483
7647.491,0.83568172
7664.28,0.83624091
7681.143,0.83687787
7698.08,0.83781749
7715.093,0.83870871
7732.18,0.83963445
7749.343,0.84050201
7766.583,0.84086642
7783.899,0.84125427
7801.292,0.84192159
7818.764,0.8425233
7836.313,0.84346819
7853.942,0.84464304
7871.649,0.84542099
7889.437,0.84619755
7907.305,0.84742923
7925.254,0.84845065
7943.285,0.84900147
7961.398,0.8494999
7979.594,0.85002349
7997.872,0.85081151
8016.235,0.85181761
8034.682,0.85262643
8053.214,0.85338562
8071.832,0.85425006
8090.535,0.85495175
8109.326,0.8554844
8128.204,0.85602767
8147.169,0.85652839
8166.224,0.85690023
8185.368,0.85722904
8204.601,0.85757067
8223.925,0.85785629
8243.34,0.85808616
8262.847,0.85837401
8282.446,0.85868911
8302.139,0.85898748
8321.925,0.85932921
8341.805,0.85966069
8361.781,0.86012593
8381.852,0.8608057
8402.02,0.86146325
8422.285,0.86188347
8442.648,0.86205622
8463.109,0.86220235
8483.67,0.86252599
8504.331,0.86283384
8525.092,0.8631159
8545.955,0.86357317
8566.921,0.86398034
8587.989,0.8643649
8609.161,0.86481316
8630.437,0.86535916
8651.819,0.86595773
8673.307,0.86633089
8694.902,0.86671297
8716.604,0.86718068
8738.415,0.86751818
8760.335,0.86782675
8782.365,0.86825292
8804.507,0.86874737
8826.76,0.86916042
8849.125,0.86953853
8871.604,0.86998853
8894.198,0.87047103
8916.907,0.87084282
8939.732,0.87105953
8962.673,0.87128338
8985.733,0.87162376
9008.912,0.87201027
9032.21,0.87233471
9055.629,0.87247915
9079.17,0.8725607
9102.833,0.87274958
9126.62,0.87289632
9150.531,0.87282104
9174.568,0.87272735
9198.731,0.87273069
9223.022,0.87270164
9247.441,0.87277463
9271.99,0.87292824
9296.669,0.8730046
9321.48,0.87297738
9346.423,0.87302783
9371.5,0.87331237
9396.712,0.87356885
9422.06,0.8736909
9447.545,0.87404435
9473.167,0.87470679
9498.929,0.87528263
9524.832,0.87572737
9550.876,0.87634166
9577.062,0.87703484
9603.393,0.8775842
9629.868,0.87805209
9656.49,0.87858961
9683.259,0.87924111
9710.176,0.87986202
9737.244,0.88052221
9764.463,0.88133059
9791.834,0.88208577
9819.359,0.88274256
9847.039,0.88336385
9874.875,0.88397358
9902.869,0.88458693
9931.022,0.88506469
9959.336,0.8854251
9987.811,0.88582898
10016.449,0.88632335
10045.252,0.88687778
10074.221,0.88740682
10103.357,0.8878921
10132.662,0.88833463
10162.137,0.88871541
10191.784,0.88914385
10221.604,0.8896583
10251.6,0.8901187
10281.771,0.89050592
10312.121,0.89089594
10342.65,0.89129429
10373.36,0.89170654
10404.253,0.89210506
10435.331,0.89253365
10466.594,0.89303145
10498.045,0.89337649
10529.686,0.89362962
10561.517,0.8939847
10593.542,0.89423238
10625.761,0.89437944
10658.176,0.89458985
10690.79,0.89472178
10723.604,0.89467353
10756.619,0.89452523
10789.839,0.894385
10823.264,0.89420566
10856.896,0.89394588
10890.738,0.89363687
10924.791,0.89328956
10959.058,0.89299894
10993.541,0.89263823
11028.24,0.89209623
11063.16,0.89155923
11098.301,0.89122294
11133.665,0.89116014
11169.256,0.89112086
11205.075,0.89100599
11241.124,0.89102096
11277.405,0.89108902
11313.921,0.89120904
11350.675,0.89147686
11387.667,0.89187019
11424.901,0.89221822
11462.38,0.89239373
11500.105,0.89271308
11538.079,0.89318269
11576.304,0.89341897
11614.783,0.89336577
11653.518,0.89337059
11692.513,0.89357548
11731.769,0.89372319
11771.29,0.89382642
11811.077,0.89405236
11851.134,0.89444339
11891.464,0.89461526
11932.068,0.89460045
11972.951,0.89487686
12014.114,0.89503887
12055.562,0.89479493
12097.296,0.89446787
12139.32,0.89403593
12181.636,0.89341339
12224.249,0.89330811
12267.16,0.89383207
12310.373,0.89425909
12353.892,0.89453074
12397.719,0.89465533
12441.859,0.89456631
12486.313,0.89446246
12531.086,0.89443948
12576.18,0.89455026
12621.601,0.89460477
12667.35,0.89464329
12713.432,0.89478397
12759.85,0.89470881
12806.608,0.8947656
12853.71,0.89514349
12901.159,0.89537668
12948.96,0.89530332
12997.116,0.89505298
13045.631,0.89472162
13094.51,0.89453934
13143.756,0.89432234
13193.373,0.89390527
13243.366,0.89385724
13293.74,0.89391714
13344.497,0.89376142
13395.644,0.89381074
13447.183,0.89411531
13499.121,0.8941606
13551.461,0.89369861
13604.208,0.89330482
13657.367,0.89329527
13710.943,0.8933953
13764.941,0.89324823
13819.365,0.89270094
13874.221,0.89196876
13929.515,0.89141393
13985.25,0.89070738
14041.433,0.88969673
14098.068,0.88864632
14155.163,0.88697728
14212.721,0.88496142
14270.749,0.88305568
14329.252,0.880873
14388.237,0.87823301
14447.709,0.87549537
14507.674,0.87275638
14568.139,0.86868582
14629.109,0.86301098
14690.592,0.85639494
14752.594,0.84878036
14815.121,0.84075786
14878.179,0.83379125
14941.777,0.82472513
15005.92,0.80970839
15070.616,0.79172102
15135.871,0.77143916
15201.695,0.74786757
15268.092,0.71774136
15335.072,0.68200574
15402.642,0.64503226
15470.81,0.60549277
15539.583,0.56225971
15608.97,0.51586667
15678.979,0.47129015
15749.619,0.43142514
15820.897,0.39217842
15892.824,0.35848068
15965.407,0.33507519
