Database of Origin,University of Winnipeg Spectrophotometer Facility
Sample Description,"HOSERLab master pyroxenes, FTIR data"
Date Added,2016-12-14 03:34:49.608579

Data ID,FTIR_PYX_04         
Sample ID,PYX023
Mineral Name,Orthopyroxene
Grain Size,45-90 um
Viewing Geometry,"i=30, e=0"
Material Class,Inosilicate

Wavelength
2000.56,0.33575816
2001.142,0.33607599
2001.725,0.33628449
2002.307,0.33650267
2002.891,0.33684084
2003.474,0.33732315
2004.058,0.3378828
2004.643,0.33841003
2005.227,0.33884618
2005.812,0.33923423
2006.397,0.33963119
2006.983,0.34002536
2007.569,0.34037719
2008.155,0.34069408
2008.742,0.34101697
2009.329,0.34138517
2009.916,0.34181195
2010.504,0.34224519
2011.092,0.34260101
2011.68,0.34289742
2012.269,0.34324167
2012.858,0.34364772
2013.447,0.34401175
2014.037,0.34431737
2014.627,0.34466946
2015.217,0.34509154
2015.808,0.34548707
2016.399,0.34583589
2016.99,0.34622517
2017.582,0.34669135
2018.174,0.34718911
2018.766,0.34769154
2019.359,0.34817301
2019.952,0.34855166
2020.546,0.34876531
2021.139,0.34885972
2021.733,0.34892257
2022.328,0.34901135
2022.923,0.34918998
2023.518,0.34954272
2024.113,0.35009545
2024.709,0.35076937
2025.305,0.35145286
2025.902,0.35209639
2026.499,0.35268281
2027.096,0.35315779
2027.693,0.35346483
2028.291,0.35366501
2028.89,0.35391735
2029.488,0.35429395
2030.087,0.35472097
2030.686,0.35515398
2031.286,0.35564951
2031.886,0.35621975
2032.486,0.35679616
2033.087,0.35737236
2033.688,0.35797209
2034.289,0.35849096
2034.891,0.35881841
2035.493,0.35906979
2036.096,0.35942545
2036.698,0.35985668
2037.302,0.36028615
2037.905,0.36081595
2038.509,0.36150444
2039.113,0.36216029
2039.718,0.36262727
2040.322,0.36301368
2040.928,0.36340497
2041.533,0.3636854
2042.139,0.36382944
2042.746,0.36403208
2043.352,0.36440498
2043.959,0.36485708
2044.567,0.36533133
2045.174,0.36585245
2045.782,0.36633731
2046.391,0.36667653
2047.0,0.36694936
2047.609,0.36731498
2048.218,0.36776552
2048.828,0.36820152
2049.438,0.36863307
2050.049,0.36913567
2050.66,0.36969999
2051.271,0.37025787
2051.883,0.3707729
2052.495,0.37124511
2053.107,0.37166843
2053.72,0.37203642
2054.333,0.37237394
2054.947,0.37275171
2055.56,0.37321616
2056.175,0.37372768
2056.789,0.37424496
2057.404,0.37481673
2058.019,0.37544331
2058.635,0.37595643
2059.251,0.37625208
2059.867,0.37651242
2060.484,0.37693817
2061.101,0.37744513
2061.718,0.37787214
2062.336,0.37825451
2062.954,0.37864186
2063.573,0.37895354
2064.192,0.37921928
2064.811,0.37961065
2065.431,0.3800742
2066.051,0.38037126
2066.671,0.38056118
2067.292,0.3809482
2067.913,0.38151005
2068.534,0.38193651
2069.156,0.3822164
2069.778,0.38263055
2070.401,0.38321861
2071.024,0.38380688
2071.647,0.38441497
2072.271,0.38513199
2072.895,0.38577303
2073.519,0.3861408
2074.144,0.38638329
2074.769,0.38671123
2075.395,0.38706189
2076.02,0.38736706
2076.647,0.38776405
2077.273,0.38826914
2077.9,0.38865382
2078.528,0.38887836
2079.155,0.38922502
2079.784,0.38984308
2080.412,0.39055539
2081.041,0.39120579
2081.67,0.39181301
2082.3,0.39234868
2082.93,0.39272327
2083.56,0.39298985
2084.191,0.39326567
2084.822,0.39353992
2085.454,0.39377956
2086.085,0.39409758
2086.718,0.39460451
2087.35,0.39524651
2087.983,0.39591675
2088.617,0.39656826
2089.251,0.39715174
2089.885,0.39761429
2090.519,0.3979703
2091.154,0.39826565
2091.789,0.39852117
2092.425,0.39880597
2093.061,0.39922212
2093.697,0.39976767
2094.334,0.40036036
2094.971,0.4009826
2095.609,0.40160645
2096.247,0.40208839
2096.885,0.40236984
2097.524,0.40263839
2098.163,0.40305554
2098.803,0.40354635
2099.443,0.40404918
2100.083,0.40465351
2100.723,0.40531595
2101.364,0.40582361
2102.006,0.40616959
2102.648,0.40656729
2103.29,0.40703226
2103.932,0.40740906
2104.575,0.40777026
2105.219,0.40832023
2105.862,0.40898661
2106.506,0.40957457
2107.151,0.41015756
2107.796,0.41086673
2108.441,0.41151472
2109.087,0.41187785
2109.733,0.41209707
2110.379,0.41242792
2111.026,0.4128545
2111.673,0.41327491
2112.321,0.41373927
2112.969,0.4142608
2113.617,0.41469421
2114.266,0.41500618
2114.915,0.41536988
2115.565,0.41586423
2116.215,0.41635239
2116.865,0.41677185
2117.516,0.41728438
2118.167,0.41799895
2118.819,0.41876866
2119.471,0.41939326
2120.123,0.4198648
2120.776,0.42027236
2121.429,0.42061922
2122.082,0.42090774
2122.736,0.42127635
2123.391,0.4218177
2124.045,0.42237043
2124.7,0.42273539
2125.356,0.42298144
2126.012,0.42327018
2126.668,0.4235567
2127.325,0.42377296
2127.982,0.4240714
2128.64,0.42456422
2129.297,0.42509501
2129.956,0.42559257
2130.614,0.42629233
2131.274,0.42728358
2131.933,0.42823472
2132.593,0.42887905
2133.253,0.42934452
2133.914,0.42976904
2134.575,0.43008082
2135.237,0.43033999
2135.899,0.43078424
2136.561,0.43140988
2137.224,0.43197957
2137.887,0.43247056
2138.55,0.43304409
2139.214,0.43364374
2139.879,0.43409359
2140.544,0.43448635
2141.209,0.43504106
2141.874,0.43571995
2142.54,0.43634035
2143.207,0.43689771
2143.873,0.43747072
2144.541,0.43799748
2145.208,0.43838673
2145.876,0.43869574
2146.545,0.43902636
2147.214,0.43939949
2147.883,0.43981391
2148.553,0.44029476
2149.223,0.4408202
2149.893,0.44130347
2150.564,0.44169003
2151.235,0.44202513
2151.907,0.44239769
2152.579,0.44282793
2153.252,0.4432389
2153.925,0.44357853
2154.598,0.44390897
2155.272,0.44430836
2155.946,0.44476057
2156.621,0.44524919
2157.296,0.44584417
2157.972,0.44655193
2158.647,0.44720366
2159.324,0.44766487
2160.001,0.44802071
2160.678,0.44840451
2161.355,0.44880909
2162.033,0.44921364
2162.712,0.44968347
2163.39,0.4501939
2164.07,0.45058775
2164.749,0.45085081
2165.429,0.45118556
2166.11,0.45169133
2166.791,0.45222573
2167.472,0.4526929
2168.154,0.45318181
2168.836,0.45371239
2169.519,0.45415783
2170.202,0.45452759
2170.885,0.45498837
2171.569,0.45552714
2172.254,0.45593137
2172.938,0.45616183
2173.624,0.45639775
2174.309,0.45669591
2174.995,0.45696366
2175.682,0.45724858
2176.368,0.45768999
2177.056,0.45821748
2177.743,0.45864742
2178.432,0.45899881
2179.12,0.45938131
2179.809,0.45972734
2180.499,0.45996601
2181.189,0.46026512
2181.879,0.46080067
2182.57,0.46147928
2183.261,0.46212726
2183.952,0.46272275
2184.644,0.46324093
2185.337,0.46356193
2186.03,0.46370435
2186.723,0.46389363
2187.417,0.46426582
2188.111,0.46473668
2188.806,0.46520965
2189.501,0.46568311
2190.196,0.4661403
2190.892,0.46652831
2191.589,0.46684895
2192.285,0.46712691
2192.983,0.46734308
2193.68,0.46750696
2194.379,0.46772193
2195.077,0.46808898
2195.776,0.46859786
2196.476,0.46916878
2197.175,0.46974947
2197.876,0.47034257
2198.577,0.47093905
2199.278,0.47145803
2199.979,0.47179526
2200.682,0.47197208
2201.384,0.47214946
2202.087,0.47244723
2202.79,0.47281924
2203.494,0.4731582
2204.199,0.47344052
2204.903,0.47372504
2205.609,0.47406466
2206.314,0.47446588
2207.02,0.47488735
2207.727,0.47527468
2208.434,0.47562613
2209.141,0.47599654
2209.849,0.47640887
2210.557,0.47678816
2211.266,0.477039
2211.975,0.47716766
2212.685,0.47728593
2213.395,0.47747885
2214.106,0.47771721
2214.817,0.47794136
2215.528,0.47815942
2216.24,0.47838447
2216.952,0.47855604
2217.665,0.4786411
2218.379,0.47871912
2219.092,0.47884871
2219.806,0.47898181
2220.521,0.47910839
2221.236,0.47929488
2221.952,0.47949274
2222.668,0.47954264
2223.384,0.47944269
2224.101,0.47934506
2224.818,0.47929889
2225.536,0.47928333
2226.254,0.47939548
2226.973,0.47968595
2227.692,0.47997822
2228.412,0.48013808
2229.132,0.48025868
2229.853,0.48034186
2230.574,0.48018518
2231.295,0.4797765
2232.017,0.47937019
2232.74,0.47905936
2233.462,0.47875707
2234.186,0.47855221
2234.91,0.4785756
2235.634,0.4786523
2236.359,0.47859957
2237.084,0.47859475
2237.809,0.47880336
2238.536,0.47903019
2239.262,0.4791071
2239.989,0.47912781
2240.717,0.47907974
2241.445,0.47882536
2242.173,0.47854207
2242.902,0.47852165
2243.631,0.47860563
2244.361,0.47847894
2245.092,0.47828728
2245.822,0.47831313
2246.554,0.4784168
2247.285,0.47840525
2248.017,0.47846358
2248.75,0.47870778
2249.483,0.47889708
2250.217,0.47896561
2250.951,0.47916619
2251.686,0.47947015
2252.421,0.47953975
2253.156,0.4793874
2253.892,0.47934123
2254.628,0.47941097
2255.365,0.47937958
2256.103,0.47932561
2256.841,0.47942125
2257.579,0.47949747
2258.318,0.47935335
2259.057,0.47913069
2259.797,0.47895562
2260.537,0.47865174
2261.278,0.47814349
2262.019,0.47767765
2262.761,0.47738912
2263.503,0.47709236
2264.246,0.47664686
2264.989,0.47612744
2265.732,0.47556767
2266.477,0.47492158
2267.221,0.47429236
2267.966,0.47387218
2268.712,0.47367437
2269.458,0.47355518
2270.204,0.47345936
2270.951,0.47344118
2271.699,0.47349616
2272.447,0.47351557
2273.195,0.47338788
2273.944,0.4730807
2274.694,0.47265144
2275.444,0.47221735
2276.194,0.47189136
2276.945,0.47169059
2277.696,0.47149579
2278.448,0.47115751
2279.201,0.47067771
2279.954,0.4702307
2280.707,0.46994899
2281.461,0.46975458
2282.215,0.46947953
2282.97,0.46907288
2283.725,0.46858081
2284.481,0.46800215
2285.237,0.46731539
2285.994,0.46660087
2286.752,0.46597536
2287.509,0.46542804
2288.268,0.46484358
2289.026,0.46416133
2289.786,0.4634039
2290.545,0.46260649
2291.306,0.46182944
2292.067,0.46118706
2292.828,0.46072672
2293.59,0.46033834
2294.352,0.45990395
2295.115,0.45946443
2295.878,0.45910343
2296.642,0.4587851
2297.406,0.45846219
2298.171,0.45820194
2298.936,0.45804154
2299.702,0.45786614
2300.468,0.45760086
2301.235,0.45733451
2302.002,0.45709761
2302.77,0.45672246
2303.539,0.45610071
2304.307,0.45536072
2305.077,0.45464365
2305.847,0.45390936
2306.617,0.45308566
2307.388,0.45219315
2308.159,0.45123159
2308.931,0.45014272
2309.703,0.44895128
2310.476,0.4477676
2311.25,0.44662528
2312.024,0.44548924
2312.798,0.44443014
2313.573,0.44361309
2314.348,0.44310075
2315.124,0.44278343
2315.901,0.44252769
2316.678,0.44230353
2317.455,0.44215043
2318.234,0.44210086
2319.012,0.44218552
2319.791,0.4424373
2320.571,0.44283929
2321.351,0.44332089
2322.131,0.44387107
2322.913,0.44456628
2323.694,0.44541644
2324.476,0.4463045
2325.259,0.44717396
2326.042,0.44811088
2326.826,0.44912408
2327.61,0.45004733
2328.395,0.45078992
2329.18,0.45147672
2329.966,0.45222554
2330.753,0.45300577
2331.54,0.45379601
2332.327,0.45463183
2333.115,0.45547159
2333.903,0.4562498
2334.692,0.45704463
2335.482,0.45796389
2336.272,0.45896547
2337.062,0.45999966
2337.854,0.46116986
2338.645,0.46255178
2339.437,0.46402533
2340.23,0.46545894
2341.023,0.46687284
2341.817,0.46831576
2342.611,0.46976654
2343.406,0.47121476
2344.201,0.47266035
2344.997,0.47403793
2345.794,0.47528274
2346.591,0.47642765
2347.388,0.47753078
2348.186,0.47861237
2348.985,0.47969592
2349.784,0.48077444
2350.583,0.48174017
2351.384,0.48248048
2352.184,0.48303086
2352.986,0.48352292
2353.787,0.48406107
2354.59,0.48469304
2355.393,0.48537592
2356.196,0.48596328
2357.0,0.48636706
2357.804,0.48669136
2358.609,0.48706567
2359.415,0.48745353
2360.221,0.48776775
2361.028,0.48801183
2361.835,0.48818149
2362.643,0.4882043
2363.451,0.4880807
2364.26,0.48791405
2365.069,0.48776573
2365.879,0.48760898
2366.69,0.48740369
2367.501,0.48708921
2368.312,0.48659702
2369.125,0.48597458
2369.937,0.48536962
2370.751,0.48483936
2371.564,0.4843237
2372.379,0.48379068
2373.194,0.48324259
2374.009,0.48263208
2374.825,0.48192335
2375.642,0.48116938
2376.459,0.4804225
2377.276,0.47969372
2378.095,0.47903399
2378.913,0.47848622
2379.733,0.47796673
2380.553,0.47739454
2381.373,0.47687953
2382.194,0.47657953
2383.016,0.47647652
2383.838,0.47648007
2384.661,0.47657464
2385.484,0.47671
2386.308,0.47676177
2387.132,0.47675354
2387.957,0.47689182
2388.783,0.47726943
2389.609,0.47775105
2390.435,0.47821007
2391.263,0.47864377
2392.09,0.47904077
2392.919,0.47936516
2393.748,0.47968792
2394.577,0.48011559
2395.407,0.48059534
2396.238,0.48098423
2397.069,0.48128827
2397.901,0.48163055
2398.733,0.48203683
2399.566,0.48243499
2400.399,0.48282903
2401.233,0.48326642
2402.068,0.4836852
2402.903,0.48397789
2403.739,0.48418601
2404.575,0.48443759
2405.412,0.48472893
2406.25,0.48496405
2407.088,0.48515818
2407.926,0.48536847
2408.766,0.48548601
2409.606,0.48535964
2410.446,0.48506806
2411.287,0.48480948
2412.128,0.48460835
2412.971,0.48438914
2413.813,0.48421172
2414.657,0.48416156
2415.5,0.48414549
2416.345,0.48405564
2417.19,0.48396914
2418.036,0.48393804
2418.882,0.48379299
2419.729,0.48341692
2420.576,0.48298819
2421.424,0.48271442
2422.272,0.48254685
2423.122,0.48236759
2423.971,0.48221805
2424.822,0.4821416
2425.673,0.48203321
2426.524,0.48183844
2427.376,0.48166291
2428.229,0.48154001
2429.082,0.48133675
2429.936,0.48101862
2430.791,0.48075052
2431.646,0.48061632
2432.501,0.48051125
2433.358,0.48041
2434.214,0.48043159
2435.072,0.48054928
2435.93,0.48056163
2436.789,0.48042862
2437.648,0.48031551
2438.508,0.48025979
2439.368,0.48015134
2440.229,0.48003825
2441.091,0.48008835
2441.953,0.48027746
2442.816,0.48045165
2443.679,0.48061261
2444.543,0.48082496
2445.408,0.48099798
2446.273,0.48106147
2447.139,0.48114929
2448.006,0.48134368
2448.873,0.48148487
2449.74,0.48144575
2450.609,0.48133027
2451.478,0.48126412
2452.347,0.48125996
2453.217,0.48132946
2454.088,0.48146898
2454.959,0.48156412
2455.831,0.48154025
2456.704,0.48148672
2457.577,0.48147434
2458.451,0.48143575
2459.325,0.48133181
2460.2,0.48120125
2461.076,0.48104601
2461.952,0.48090092
2462.829,0.48090492
2463.707,0.48107458
2464.585,0.48120119
2465.464,0.48116157
2466.343,0.48104793
2467.223,0.48090296
2468.104,0.48068247
2468.985,0.48048216
2469.867,0.480392
2470.749,0.48023822
2471.632,0.47987468
2472.516,0.47947558
2473.4,0.4791649
2474.285,0.47878354
2475.171,0.47832865
2476.057,0.47807113
2476.944,0.47800257
2477.832,0.47779609
2478.72,0.47743588
2479.608,0.47721749
2480.498,0.47715179
2481.388,0.47705362
2482.278,0.4770239
2483.17,0.47715674
2484.062,0.47712892
2484.954,0.47672409
2485.847,0.47626852
2486.741,0.47602281
2487.636,0.47579029
2488.531,0.47548226
2489.427,0.47531138
2490.323,0.47517179
2491.22,0.4746762
2492.118,0.47392295
2493.016,0.47338024
2493.915,0.47307434
2494.814,0.47271683
2495.715,0.47237466
2496.615,0.47220451
2497.517,0.47194019
2498.419,0.47139683
2499.322,0.47094872
2500.225,0.47086848
2501.129,0.47083116
2502.034,0.47059966
2502.939,0.47044082
2503.845,0.47043976
2504.752,0.47025929
2505.659,0.46991969
2506.567,0.46990273
2507.476,0.47024986
2508.385,0.47049036
2509.295,0.47053039
2510.206,0.47068277
2511.117,0.47087787
2512.029,0.47081561
2512.942,0.47072315
2513.855,0.4709994
2514.769,0.47139388
2515.683,0.47150088
2516.598,0.47159667
2517.514,0.47205155
2518.431,0.47251995
2519.348,0.47264945
2520.266,0.47282268
2521.184,0.47334276
2522.103,0.47374327
2523.023,0.47371101
2523.944,0.47371508
2524.865,0.4740206
2525.787,0.47419158
2526.709,0.47415555
2527.632,0.4744664
2528.556,0.47514141
2529.48,0.47550875
2530.406,0.47547855
2531.331,0.47563937
2532.258,0.47601285
2533.185,0.47608616
2534.113,0.47600879
2535.041,0.47626571
2535.971,0.47655043
2536.9,0.47632606
2537.831,0.47601067
2538.762,0.4762205
2539.694,0.47663774
2540.627,0.47671249
2541.56,0.47671834
2542.494,0.47705834
2543.428,0.47735508
2544.364,0.47727654
2545.3,0.47726327
2546.236,0.47753639
2547.174,0.47753562
2548.112,0.47707025
2549.05,0.47686925
2549.99,0.47725618
2550.93,0.47748456
2551.87,0.47705895
2552.812,0.47654181
2553.754,0.47633335
2554.697,0.47601245
2555.64,0.47549359
2556.585,0.47537872
2557.529,0.47580857
2558.475,0.47619467
2559.421,0.47646754
2560.368,0.47721232
2561.316,0.47813212
2562.264,0.47801301
2563.213,0.47703247
2564.163,0.47655604
2565.113,0.47673484
2566.065,0.47681348
2567.016,0.47699413
2567.969,0.47778064
2568.922,0.47848635
2569.876,0.47830393
2570.831,0.47811482
2571.786,0.47879888
2572.742,0.47946673
2573.699,0.47927052
2574.656,0.47917957
2575.615,0.47971986
2576.573,0.47976271
2577.533,0.47906657
2578.493,0.47904018
2579.454,0.47992531
2580.416,0.48046851
2581.378,0.48057307
2582.342,0.48129831
2583.305,0.48215052
2584.27,0.48180986
2585.235,0.48122665
2586.201,0.48172796
2587.168,0.48230769
2588.135,0.48172935
2589.103,0.481239
2590.072,0.48195883
2591.042,0.48311972
2592.012,0.48431225
2592.983,0.48652155
2593.955,0.48895907
2594.927,0.48838506
2595.9,0.48520321
2596.874,0.48318439
2597.849,0.48275116
2598.824,0.48243712
2599.8,0.48237943
2600.777,0.48335037
2601.755,0.48456412
2602.733,0.48495412
2603.712,0.48528281
2604.692,0.4860637
2605.672,0.4858844
2606.653,0.48438449
2607.635,0.48340952
2608.618,0.48349402
2609.601,0.48336637
2610.585,0.48284758
2611.57,0.48299116
2612.556,0.48372472
2613.542,0.48416842
2614.529,0.48454061
2615.517,0.48544668
2616.505,0.48614343
2617.495,0.48580552
2618.485,0.48520538
2619.475,0.48496929
2620.467,0.48428392
2621.459,0.48296013
2622.452,0.48215568
2623.446,0.48238842
2624.44,0.48291345
2625.435,0.48318324
2626.431,0.4834854
2627.428,0.48401268
2628.426,0.48442098
2629.424,0.4845429
2630.423,0.48445798
2631.423,0.48392132
2632.423,0.48273046
2633.424,0.48130876
2634.426,0.48023293
2635.429,0.47950466
2636.432,0.47878871
2637.437,0.47806856
2638.442,0.47760143
2639.447,0.47730886
2640.454,0.47677549
2641.461,0.47600814
2642.469,0.47551291
2643.478,0.47537792
2644.488,0.47499995
2645.498,0.47406265
2646.509,0.4729392
2647.521,0.47187578
2648.534,0.47078919
2649.547,0.46992904
2650.561,0.46960358
2651.576,0.46932194
2652.592,0.46835829
2653.609,0.46701343
2654.626,0.46596037
2655.644,0.46496582
2656.663,0.46370494
2657.682,0.46263334
2658.703,0.46193025
2659.724,0.46082573
2660.746,0.45911128
2661.768,0.45786795
2662.792,0.45764262
2663.816,0.45749827
2664.841,0.4563859
2665.867,0.45425863
2666.894,0.45156273
2667.921,0.44856945
2668.949,0.44536345
2669.978,0.44124038
2671.008,0.43517176
2672.038,0.42801735
2673.07,0.42204767
2674.102,0.41797194
2675.135,0.41450749
2676.168,0.40984399
2677.203,0.40292803
2678.238,0.39379236
2679.274,0.38340821
2680.311,0.37306549
2681.349,0.36329522
2682.387,0.35349421
2683.426,0.34269002
2684.467,0.33043989
2685.507,0.31684416
2686.549,0.30217767
2687.591,0.28693359
2688.635,0.27187219
2689.679,0.25784806
2690.724,0.24555684
2691.769,0.23504155
2692.816,0.2251668
2693.863,0.21411015
2694.911,0.20120528
2695.96,0.18788516
2697.01,0.17586298
2698.06,0.16584113
2699.112,0.15800269
2700.164,0.15210317
2701.217,0.14713922
2702.27,0.14218773
2703.325,0.13743626
2704.38,0.13354027
2705.437,0.13067089
2706.494,0.12905232
2707.552,0.12933143
2708.61,0.1315008
2709.67,0.13376384
2710.73,0.13377617
2711.791,0.13114101
2712.853,0.12722552
2713.916,0.12314931
2714.98,0.11981195
2716.044,0.11836661
2717.109,0.11946412
2718.175,0.12248571
2719.242,0.12596103
2720.31,0.12829449
2721.379,0.1284343
2722.448,0.12676931
2723.518,0.12468143
2724.589,0.12274629
2725.661,0.12023249
2726.734,0.11670021
2727.808,0.11311166
2728.882,0.11058289
2729.958,0.10911751
2731.034,0.10808206
2732.111,0.10729789
2733.188,0.1069133
2734.267,0.10653181
2735.347,0.10557647
2736.427,0.10443046
2737.508,0.10407082
2738.59,0.10475392
2739.673,0.10559458
2740.757,0.10536811
2741.841,0.10371646
2742.927,0.10136146
2744.013,0.09921582
2745.1,0.09787904
2746.188,0.09743142
2747.277,0.09745912
2748.367,0.09755546
2749.457,0.09769837
2750.549,0.09796452
2751.641,0.09827391
2752.734,0.09862623
2753.828,0.09914826
2754.923,0.09966502
2756.019,0.09967754
2757.115,0.09917861
2758.213,0.09872646
2759.311,0.09859774
2760.41,0.09871777
2761.51,0.09901937
2762.611,0.09938999
2763.713,0.09958755
2764.816,0.09955726
2765.919,0.0995488
2767.024,0.09970275
2768.129,0.09990843
2769.235,0.10007491
2770.342,0.1002123
2771.45,0.10024759
2772.559,0.10013561
2773.669,0.10006956
2774.779,0.10023795
2775.891,0.10055744
2777.003,0.10086589
2778.116,0.10116657
2779.23,0.1014768
2780.345,0.1016903
2781.461,0.10181036
2782.578,0.10203916
2783.696,0.10243494
2784.814,0.1028207
2785.934,0.10312787
2787.054,0.10351853
2788.175,0.10403089
2789.297,0.10445631
2790.42,0.10470381
2791.544,0.10488925
2792.669,0.10505655
2793.795,0.1051662
2794.922,0.10529413
2796.049,0.10557942
2797.178,0.10595166
2798.307,0.10620621
2799.437,0.10633711
2800.568,0.10653683
2801.7,0.10687025
2802.833,0.10717724
2803.967,0.10733081
2805.102,0.10740539
2806.238,0.10747044
2807.374,0.10751074
2808.512,0.1076089
2809.65,0.10788882
2810.789,0.10825846
2811.93,0.10850835
2813.071,0.10864503
2814.213,0.10886192
2815.356,0.10920155
2816.5,0.10953823
2817.645,0.1098422
2818.791,0.1101641
2819.937,0.11041745
2821.085,0.11050805
2822.233,0.11057473
2823.383,0.11079977
2824.533,0.11112551
2825.685,0.11142611
2826.837,0.11172344
2827.99,0.11203658
2829.144,0.11222861
2830.299,0.11222485
2831.455,0.11215979
2832.612,0.11213995
2833.77,0.11207436
2834.929,0.11190387
2836.089,0.11175624
2837.25,0.1117464
2838.411,0.11180798
2839.574,0.11185148
2840.737,0.11189673
2841.902,0.11198754
2843.067,0.11210821
2844.234,0.11223241
2845.401,0.11235
2846.569,0.11244846
2847.739,0.11251445
2848.909,0.11258412
2850.08,0.11271863
2851.252,0.1129357
2852.425,0.11318548
2853.599,0.11340675
2854.774,0.11359029
2855.95,0.11377621
2857.127,0.11399212
2858.305,0.11423734
2859.484,0.1145067
2860.664,0.11479002
2861.844,0.11502517
2863.026,0.11514118
2864.209,0.11517107
2865.392,0.11521293
2866.577,0.11525763
2867.763,0.11521718
2868.949,0.1151024
2870.137,0.11501817
2871.325,0.11499703
2872.515,0.11498423
2873.705,0.1149654
2874.897,0.1149874
2876.089,0.11506658
2877.283,0.11520704
2878.477,0.11543653
2879.673,0.11572854
2880.869,0.11593663
2882.066,0.11591129
2883.265,0.11567531
2884.464,0.1154197
2885.664,0.1153609
2886.866,0.1156105
2888.068,0.11609811
2889.271,0.1165808
2890.476,0.11676475
2891.681,0.11651741
2892.887,0.11599942
2894.095,0.11552585
2895.303,0.11528567
2896.512,0.11522899
2897.723,0.11521668
2898.934,0.11519183
2900.146,0.1151683
2901.36,0.11514388
2902.574,0.11511198
2903.789,0.11509386
2905.006,0.11509527
2906.223,0.11509537
2907.441,0.11512702
2908.661,0.11524102
2909.881,0.11537884
2911.103,0.1154215
2912.325,0.11539667
2913.549,0.11548335
2914.773,0.1157811
2915.999,0.11620068
2917.225,0.11659693
2918.453,0.11686773
2919.681,0.11693207
2920.911,0.11676633
2922.142,0.11649247
2923.373,0.1162772
2924.606,0.11615612
2925.84,0.11607113
2927.075,0.11602857
2928.31,0.11607104
2929.547,0.11615279
2930.785,0.11619866
2932.024,0.11624645
2933.264,0.11638195
2934.505,0.11658674
2935.747,0.11678246
2936.99,0.11697733
2938.234,0.11722241
2939.479,0.1174751
2940.726,0.117658
2941.973,0.117815
2943.221,0.11809431
2944.471,0.11861196
2945.721,0.11935993
2946.973,0.12015136
2948.225,0.12064183
2949.479,0.12059357
2950.733,0.12020011
2951.989,0.11998477
2953.246,0.12026487
2954.504,0.12083598
2955.763,0.12125206
2957.023,0.12128801
2958.284,0.12105318
2959.546,0.12081077
2960.809,0.1207832
2962.073,0.12103196
2963.339,0.12144225
2964.605,0.12186263
2965.873,0.12223638
2967.141,0.12254637
2968.411,0.12273767
2969.681,0.12282886
2970.953,0.12302208
2972.226,0.12354965
2973.5,0.12441351
2974.775,0.1253382
2976.051,0.12596284
2977.328,0.12607471
2978.607,0.12574128
2979.886,0.12527049
2981.167,0.12498167
2982.448,0.12497407
2983.731,0.12513168
2985.015,0.12532316
2986.3,0.12554145
2987.586,0.12587112
2988.873,0.12637884
2990.161,0.12701179
2991.45,0.1275675
2992.74,0.12781756
2994.032,0.12772634
2995.324,0.12751315
2996.618,0.12746587
2997.913,0.1277277
2999.209,0.1282672
3000.506,0.12895164
3001.804,0.12958238
3003.103,0.12996222
3004.404,0.13003752
3005.705,0.12994768
3007.008,0.12989117
3008.312,0.12997986
3009.616,0.13025216
3010.922,0.13073068
3012.23,0.13136806
3013.538,0.13200446
3014.847,0.13247813
3016.158,0.13273029
3017.469,0.13278702
3018.782,0.13273959
3020.096,0.13274678
3021.411,0.13292949
3022.727,0.13325399
3024.044,0.13362754
3025.363,0.13407006
3026.683,0.13466896
3028.003,0.13542784
3029.325,0.13628715
3030.648,0.13719127
3031.972,0.13797979
3033.298,0.13835206
3034.624,0.13816123
3035.952,0.13765344
3037.281,0.13724022
3038.611,0.13714163
3039.942,0.13737318
3041.274,0.13788645
3042.607,0.13854758
3043.942,0.13912353
3045.278,0.13944781
3046.615,0.13952834
3047.953,0.13945227
3049.292,0.1393221
3050.632,0.13928465
3051.974,0.13944191
3053.317,0.13972331
3054.661,0.13998337
3056.006,0.14020289
3057.352,0.140465
3058.7,0.14080164
3060.048,0.14120557
3061.398,0.14171699
3062.749,0.14235023
3064.101,0.14296914
3065.455,0.14335054
3066.809,0.14337411
3068.165,0.1431097
3069.522,0.14276009
3070.88,0.14254988
3072.239,0.14260865
3073.6,0.14291069
3074.962,0.14333319
3076.325,0.1437738
3077.689,0.1441951
3079.054,0.14457923
3080.421,0.14488764
3081.788,0.14509114
3083.157,0.14523576
3084.527,0.14543012
3085.899,0.14573362
3087.271,0.14608276
3088.645,0.14636917
3090.02,0.14656488
3091.396,0.14671251
3092.774,0.14683542
3094.153,0.14694585
3095.532,0.14711461
3096.914,0.1474417
3098.296,0.14795234
3099.679,0.14855286
3101.064,0.14907038
3102.45,0.14933139
3103.837,0.14927925
3105.226,0.14905391
3106.616,0.14889487
3108.007,0.14892885
3109.399,0.14911612
3110.792,0.14939256
3112.187,0.149742
3113.583,0.15012404
3114.98,0.15046246
3116.378,0.15074057
3117.778,0.15101995
3119.179,0.15134729
3120.581,0.15170693
3121.985,0.15205989
3123.389,0.15236953
3124.795,0.15261226
3126.202,0.15282545
3127.611,0.15310865
3129.02,0.153513
3130.431,0.15397585
3131.844,0.15441534
3133.257,0.15482667
3134.672,0.15523201
3136.088,0.15560994
3137.505,0.15593145
3138.924,0.156211
3140.344,0.15648605
3141.765,0.15678321
3143.187,0.15711771
3144.611,0.15747772
3146.036,0.15781576
3147.462,0.15810832
3148.89,0.15840589
3150.319,0.15878302
3151.749,0.15925298
3153.18,0.15976523
3154.613,0.16025872
3156.047,0.16069574
3157.482,0.16108569
3158.919,0.16149327
3160.357,0.16196754
3161.796,0.16247194
3163.236,0.16293974
3164.678,0.16337212
3166.121,0.16381164
3167.566,0.16425627
3169.011,0.16467235
3170.458,0.16505964
3171.907,0.16543656
3173.356,0.16581553
3174.807,0.16625822
3176.26,0.1668997
3177.713,0.16781924
3179.168,0.16889922
3180.624,0.16986013
3182.082,0.17043688
3183.541,0.17054275
3185.001,0.17033383
3186.463,0.17013144
3187.926,0.17021221
3189.39,0.17064935
3190.856,0.17135088
3192.323,0.17217335
3193.791,0.17293795
3195.26,0.17344098
3196.731,0.17360122
3198.204,0.17358593
3199.677,0.17367893
3201.152,0.17402423
3202.629,0.17454188
3204.106,0.17505239
3205.585,0.17541663
3207.066,0.17562341
3208.548,0.17584885
3210.031,0.17637876
3211.515,0.17737078
3213.001,0.17870139
3214.488,0.18006806
3215.977,0.18116605
3217.467,0.18176092
3218.958,0.1817702
3220.451,0.18139111
3221.945,0.18103638
3223.441,0.18101572
3224.938,0.18130338
3226.436,0.18165188
3227.936,0.18187032
3229.437,0.18197637
3230.939,0.18214954
3232.443,0.1825552
3233.948,0.18315996
3235.455,0.18373788
3236.963,0.18409901
3238.472,0.18427879
3239.983,0.18446752
3241.495,0.18482063
3243.008,0.18537269
3244.523,0.18606172
3246.04,0.18678475
3247.558,0.18747437
3249.077,0.18814527
3250.598,0.18885002
3252.12,0.18961038
3253.643,0.19041502
3255.168,0.1912043
3256.694,0.19181246
3258.222,0.19201458
3259.751,0.19172766
3261.282,0.19114653
3262.814,0.19064279
3264.347,0.19053497
3265.882,0.19091077
3267.418,0.19159552
3268.956,0.19227952
3270.495,0.19272192
3272.036,0.19286934
3273.578,0.19282706
3275.122,0.19278076
3276.667,0.19291613
3278.213,0.19330459
3279.761,0.1938493
3281.31,0.19440284
3282.861,0.19491227
3284.413,0.19539577
3285.967,0.19583536
3287.522,0.19619309
3289.079,0.19650411
3290.637,0.19689213
3292.196,0.19749342
3293.757,0.19833743
3295.32,0.19923283
3296.884,0.19982731
3298.449,0.1999182
3300.016,0.19970027
3301.585,0.19959573
3303.155,0.19985435
3304.726,0.2003906
3306.299,0.20093691
3307.873,0.20126435
3309.449,0.20134301
3311.026,0.20137711
3312.605,0.20161121
3314.185,0.20206131
3315.767,0.20253517
3317.351,0.20290936
3318.936,0.20324849
3320.522,0.20367743
3322.11,0.20429884
3323.699,0.20520527
3325.29,0.20638199
3326.882,0.20759011
3328.476,0.20847971
3330.072,0.20881761
3331.669,0.20857392
3333.267,0.20791963
3334.867,0.20721668
3336.469,0.2068405
3338.072,0.20689163
3339.676,0.20720053
3341.282,0.20764207
3342.89,0.20824505
3344.499,0.20897749
3346.11,0.20967795
3347.722,0.2102613
3349.336,0.21076613
3350.952,0.21115938
3352.569,0.21132092
3354.187,0.21125303
3355.807,0.21111491
3357.429,0.21105107
3359.052,0.21115235
3360.677,0.21152174
3362.303,0.2121663
3363.931,0.21287445
3365.56,0.21338405
3367.191,0.21363133
3368.824,0.21371483
3370.458,0.21372088
3372.093,0.2137011
3373.731,0.21370409
3375.37,0.21371515
3377.01,0.21366552
3378.652,0.2135832
3380.296,0.2136191
3381.941,0.21386179
3383.588,0.21425112
3385.236,0.21470433
3386.886,0.21518865
3388.538,0.21564955
3390.191,0.21601001
3391.846,0.21629229
3393.502,0.21662561
3395.16,0.21708247
3396.82,0.21759732
3398.481,0.21808816
3400.144,0.21858356
3401.809,0.21915283
3403.475,0.21975612
3405.143,0.22022593
3406.812,0.22039641
3408.483,0.22021354
3410.156,0.21976699
3411.83,0.21926448
3413.506,0.21894558
3415.183,0.21893659
3416.862,0.21921018
3418.543,0.21971449
3420.226,0.22045174
3421.91,0.22134248
3423.596,0.22213549
3425.283,0.22260794
3426.972,0.2227998
3428.663,0.22293569
3430.355,0.22319577
3432.049,0.22365858
3433.745,0.22437173
3435.442,0.22533648
3437.141,0.22648227
3438.842,0.22772508
3440.545,0.22895476
3442.249,0.22993201
3443.954,0.23037083
3445.662,0.2302265
3447.371,0.22979272
3449.082,0.22943832
3450.794,0.22933626
3452.509,0.22947343
3454.224,0.2297729
3455.942,0.23013283
3457.661,0.23047732
3459.382,0.23084493
3461.105,0.2313265
3462.829,0.23187213
3464.556,0.23227984
3466.283,0.2324367
3468.013,0.23244952
3469.744,0.23247843
3471.477,0.23256916
3473.212,0.23271469
3474.948,0.23294724
3476.686,0.23327174
3478.426,0.23362233
3480.168,0.23396246
3481.911,0.23433071
3483.656,0.23475999
3485.403,0.23528286
3487.152,0.23600069
3488.902,0.23693529
3490.654,0.23780364
3492.408,0.23818857
3494.164,0.23799531
3495.921,0.23754347
3497.68,0.237193
3499.441,0.23708398
3501.204,0.23723309
3502.968,0.23762487
3504.734,0.23816068
3506.502,0.23870602
3508.272,0.23921975
3510.043,0.23971351
3511.817,0.240155
3513.592,0.24054562
3515.368,0.24099506
3517.147,0.2415876
3518.927,0.24226607
3520.71,0.24293973
3522.494,0.24357891
3524.28,0.24414645
3526.067,0.24460849
3527.857,0.24509496
3529.648,0.24585629
3531.441,0.24694065
3533.236,0.24804834
3535.032,0.24880293
3536.831,0.24907528
3538.631,0.24900366
3540.433,0.24881612
3542.237,0.24869152
3544.043,0.24870891
3545.851,0.24886107
3547.66,0.24911534
3549.471,0.24946274
3551.284,0.24988216
3553.099,0.25030098
3554.916,0.25065047
3556.735,0.25094808
3558.555,0.25126556
3560.378,0.25163046
3562.202,0.25200941
3564.028,0.25238735
3565.856,0.25280287
3567.686,0.25328041
3569.518,0.25375337
3571.351,0.25409279
3573.187,0.25422153
3575.024,0.25419857
3576.863,0.25419339
3578.704,0.25437851
3580.547,0.25482354
3582.392,0.25546171
3584.239,0.25612448
3586.088,0.25664048
3587.938,0.25694802
3589.791,0.25714079
3591.645,0.25738189
3593.501,0.25775253
3595.359,0.25818076
3597.22,0.25850466
3599.082,0.25861226
3600.946,0.25854648
3602.811,0.25848078
3604.679,0.25856864
3606.549,0.25882115
3608.421,0.25916513
3610.294,0.25958051
3612.17,0.26009919
3614.047,0.26068623
3615.926,0.26121329
3617.808,0.26157071
3619.691,0.26175228
3621.576,0.26183646
3623.463,0.26192836
3625.353,0.26209768
3627.244,0.26234059
3629.137,0.26261108
3631.032,0.26289093
3632.929,0.26319824
3634.828,0.26354446
3636.729,0.26392121
3638.632,0.26431358
3640.537,0.26469884
3642.444,0.26507121
3644.353,0.26548549
3646.263,0.26600915
3648.176,0.26660421
3650.091,0.26712545
3652.008,0.26744716
3653.927,0.2675463
3655.848,0.26750042
3657.771,0.26746963
3659.696,0.26762208
3661.623,0.267992
3663.552,0.26846223
3665.483,0.2689174
3667.416,0.26932492
3669.351,0.26966343
3671.288,0.26991587
3673.227,0.27017161
3675.168,0.27058562
3677.111,0.27119438
3679.057,0.27187338
3681.004,0.27247668
3682.953,0.27291248
3684.905,0.27313417
3686.858,0.27318525
3688.814,0.27321851
3690.771,0.2733585
3692.731,0.27358966
3694.693,0.27385573
3696.656,0.27418232
3698.622,0.27460902
3700.59,0.2750832
3702.56,0.27551759
3704.532,0.27590053
3706.507,0.27627057
3708.483,0.27663852
3710.461,0.27700811
3712.442,0.27742101
3714.425,0.27789357
3716.409,0.27835531
3718.396,0.27873326
3720.385,0.27906127
3722.376,0.27941827
3724.37,0.27981342
3726.365,0.28022327
3728.362,0.28066866
3730.362,0.28113792
3732.364,0.28152915
3734.368,0.28180279
3736.374,0.28209593
3738.382,0.2825479
3740.392,0.2831304
3742.405,0.2837534
3744.419,0.2843857
3746.436,0.28497102
3748.455,0.28541289
3750.476,0.2857314
3752.499,0.28605141
3754.525,0.28638852
3756.553,0.28666287
3758.582,0.28690532
3760.614,0.28722536
3762.649,0.28760601
3764.685,0.28795976
3766.724,0.28831155
3768.764,0.28872146
3770.807,0.28913004
3772.853,0.28945576
3774.9,0.28971726
3776.95,0.28995009
3779.001,0.29015923
3781.056,0.29042002
3783.112,0.29082676
3785.17,0.29132568
3787.231,0.29177495
3789.294,0.29214287
3791.359,0.29247962
3793.427,0.29279209
3795.496,0.29309944
3797.568,0.2934945
3799.643,0.29401787
3801.719,0.29459899
3803.798,0.29517205
3805.879,0.2957125
3807.962,0.29616061
3810.048,0.29648899
3812.135,0.29680153
3814.225,0.29720786
3816.318,0.29768552
3818.412,0.29817908
3820.509,0.29868967
3822.609,0.29916931
3824.71,0.29951594
3826.814,0.29976314
3828.92,0.30007924
3831.029,0.30052607
3833.139,0.3010151
3835.252,0.3014999
3837.368,0.30201436
3839.486,0.30254593
3841.606,0.30304884
3843.728,0.30353663
3845.853,0.30402551
3847.98,0.30447304
3850.109,0.30487568
3852.241,0.30531435
3854.375,0.3058234
3856.512,0.30633569
3858.65,0.30681548
3860.792,0.30731501
3862.935,0.30785583
3865.081,0.30837719
3867.229,0.30884014
3869.38,0.30928338
3871.533,0.30975034
3873.689,0.31023283
3875.846,0.31070331
3878.007,0.31116368
3880.169,0.31164065
3882.334,0.31214474
3884.502,0.31264043
3886.672,0.31308409
3888.844,0.31348646
3891.019,0.31390999
3893.196,0.31439908
3895.375,0.3149545
3897.557,0.31555577
3899.742,0.31615703
3901.929,0.31668121
3904.118,0.31709327
3906.31,0.31745401
3908.504,0.31784539
3910.7,0.31828468
3912.9,0.31876358
3915.101,0.31929173
3917.305,0.31983407
3919.512,0.32029798
3921.721,0.32065806
3923.932,0.3209968
3926.146,0.32136611
3928.363,0.32173844
3930.581,0.32214054
3932.803,0.3226607
3935.027,0.32327203
3937.253,0.32383883
3939.482,0.32434785
3941.714,0.32492184
3943.948,0.32557877
3946.184,0.32620585
3948.423,0.32677864
3950.665,0.32736183
3952.909,0.32792398
3955.156,0.32839651
3957.405,0.32887006
3959.657,0.3294835
3961.911,0.330204
3964.168,0.33094007
3966.427,0.33172313
3968.689,0.33255437
3970.954,0.3332739
3973.221,0.33379711
3975.491,0.33428077
3977.763,0.33486638
3980.038,0.33548209
3982.315,0.33603595
3984.595,0.33655382
3986.878,0.33702952
3989.163,0.33738552
3991.451,0.3376505
3993.742,0.33796293
3996.035,0.33837127
3998.33,0.33882872
4000.629,0.33933793
4002.93,0.33992343
4005.233,0.34052399
4007.54,0.34107068
4009.849,0.34158221
4012.16,0.34208297
4014.475,0.34253922
4016.791,0.34294899
4019.111,0.34338494
4021.433,0.34390368
4023.758,0.34448298
4026.086,0.34505997
4028.416,0.34557942
4030.749,0.34602951
4033.085,0.34645399
4035.423,0.34689362
4037.764,0.34732804
4040.108,0.3477391
4042.454,0.34817162
4044.804,0.34866209
4047.155,0.34917184
4049.51,0.34966247
4051.867,0.35015223
4054.228,0.35065827
4056.59,0.35117053
4058.956,0.3517155
4061.324,0.3523319
4063.695,0.35297735
4066.069,0.35357393
4068.446,0.35414164
4070.825,0.35477539
4073.207,0.35549999
4075.592,0.35625173
4077.98,0.35699569
4080.371,0.35774867
4082.764,0.35849874
4085.16,0.35920113
4087.559,0.35985468
4089.961,0.36050712
4092.365,0.36117353
4094.773,0.36183921
4097.183,0.36253636
4099.596,0.36331778
4102.012,0.364131
4104.43,0.36485865
4106.852,0.36550186
4109.276,0.36617938
4111.703,0.36693015
4114.133,0.36769862
4116.566,0.36849655
4119.002,0.36936848
4121.441,0.37021859
4123.882,0.37092277
4126.327,0.37155925
4128.774,0.37227363
4131.224,0.37302797
4133.677,0.37374246
4136.133,0.37452423
4138.592,0.37546965
4141.054,0.37643969
4143.519,0.37728671
4145.987,0.37807801
4148.457,0.37888871
4150.931,0.37966055
4153.407,0.3804059
4155.887,0.38124411
4158.369,0.38215279
4160.854,0.38300126
4163.343,0.3838272
4165.834,0.38474365
4168.328,0.38566239
4170.826,0.38644116
4173.326,0.38717127
4175.829,0.38801597
4178.335,0.38896066
4180.844,0.38996201
4183.356,0.3910921
4185.872,0.3923579
4188.39,0.39365834
4190.911,0.39503508
4193.435,0.39670807
4195.963,0.39886476
4198.493,0.40166253
4201.026,0.40532931
4203.563,0.40997259
4206.102,0.41540666
4208.645,0.42141131
4211.19,0.42794296
4213.739,0.43487306
4216.291,0.44183946
4218.846,0.44859587
4221.404,0.45511411
4223.965,0.46121296
4226.529,0.46662658
4229.096,0.47145374
4231.666,0.47583818
4234.24,0.47938498
4236.816,0.48161931
4239.396,0.48268612
4241.979,0.48278464
4244.565,0.48138134
4247.154,0.47762468
4249.746,0.47140107
4252.341,0.46391782
4254.94,0.45749537
4257.542,0.45453687
4260.146,0.45629326
4262.754,0.46219191
4265.366,0.46998835
4267.98,0.47691188
4270.598,0.48130542
4273.219,0.48325751
4275.843,0.48384968
4278.47,0.48418465
4281.1,0.48483909
4283.734,0.48583982
4286.371,0.48700717
4289.011,0.48814527
4291.655,0.48891647
4294.301,0.48901072
4296.951,0.48860594
4299.604,0.48830356
4302.261,0.48840605
4304.92,0.48855679
4307.583,0.48818909
4310.25,0.48711262
4312.919,0.48555472
4315.592,0.48389808
4318.268,0.48249541
4320.948,0.48152606
4323.631,0.48087285
4326.317,0.4802575
4329.006,0.47954961
4331.699,0.47881929
4334.395,0.47811199
4337.095,0.47740151
4339.797,0.47679243
4342.504,0.47651245
4345.213,0.47664187
4347.926,0.47707264
4350.642,0.47769972
4353.362,0.47843897
4356.085,0.47914078
4358.811,0.47975143
4361.541,0.48045146
4364.275,0.48140997
4367.011,0.4825569
4369.751,0.48377875
4372.495,0.48507455
4375.242,0.48638442
4377.992,0.48760153
4380.746,0.48884598
4383.504,0.49035319
4386.264,0.49207581
4389.029,0.49378152
4391.796,0.49544884
4394.567,0.4971298
4397.342,0.4986534
4400.12,0.49995177
4402.902,0.50134508
4405.687,0.50304554
4408.476,0.50479478
4411.268,0.50640376
4414.064,0.50807959
4416.863,0.50988892
4419.666,0.51155373
4422.472,0.51301436
4425.282,0.51449432
4428.096,0.51591797
4430.913,0.51704444
4433.734,0.51811065
4436.558,0.51950989
4439.386,0.52103799
4442.217,0.52225023
4445.052,0.52325854
4447.891,0.52438062
4450.733,0.52549546
4453.579,0.52644058
4456.428,0.52747969
4459.281,0.52874554
4462.138,0.52987061
4464.998,0.53068623
4467.863,0.53159648
4470.73,0.53284033
4473.602,0.53411335
4476.477,0.53518827
4479.355,0.53621981
4482.238,0.53725242
4485.124,0.53811413
4488.014,0.53885375
4490.908,0.53971271
4493.805,0.5406712
4496.706,0.54151781
4499.611,0.54227723
4502.519,0.54314253
4505.431,0.54408924
4508.347,0.54490914
4511.267,0.54555822
4514.191,0.54618638
4517.118,0.54687658
4520.049,0.54754607
4522.984,0.54814844
4525.923,0.54879993
4528.865,0.54957545
4531.812,0.55030277
4534.762,0.55078683
4537.716,0.55115163
4540.674,0.55164594
4543.635,0.55224979
4546.601,0.55281482
4549.57,0.55345417
4552.543,0.55433035
4555.521,0.55526845
4558.502,0.55603836
4561.487,0.55677919
4564.475,0.55761451
4567.468,0.55822543
4570.465,0.5583926
4573.465,0.5585856
4576.47,0.55926625
4579.478,0.56016238
4582.491,0.5609244
4585.507,0.56171786
4588.527,0.56258997
4591.551,0.56314487
4594.58,0.5633893
4597.612,0.56396624
4600.648,0.56506632
4603.688,0.56606177
4606.732,0.56659343
4609.781,0.56702398
4612.833,0.56751865
4615.889,0.56779426
4618.949,0.56797268
4622.014,0.56856762
4625.082,0.56941822
4628.155,0.56987702
4631.231,0.57007176
4634.312,0.57074741
4637.397,0.57182945
4640.485,0.57262986
4643.578,0.57322823
4646.675,0.57417156
4649.777,0.57526111
4652.882,0.57591808
4655.991,0.57642225
4659.105,0.57745489
4662.223,0.57880487
4665.345,0.57992938
4668.471,0.58116218
4671.601,0.58297088
4674.735,0.58488735
4677.874,0.5863569
4681.017,0.58765906
4684.164,0.58891331
4687.315,0.58950655
4690.471,0.58947071
4693.63,0.58996176
4696.794,0.59150136
4699.962,0.59326817
4703.135,0.59469858
4706.312,0.59620812
4709.493,0.59787791
4712.678,0.59911033
4715.868,0.59990621
4719.062,0.60093228
4722.26,0.60223156
4725.463,0.60329403
4728.669,0.60419898
4731.881,0.60535601
4735.096,0.60653274
4738.316,0.6072909
4741.541,0.60788217
4744.769,0.60874396
4748.002,0.60976552
4751.24,0.61074476
4754.482,0.6118704
4757.728,0.61320641
4760.979,0.61440514
4764.234,0.61529809
4767.494,0.61615181
4770.758,0.61714407
4774.026,0.61817139
4777.299,0.61918411
4780.577,0.62024865
4783.859,0.62131812
4787.145,0.62227818
4790.436,0.62310589
4793.732,0.62384993
4797.032,0.62458054
4800.336,0.62538822
4803.645,0.62629591
4806.959,0.62724526
4810.277,0.62828161
4813.6,0.62951878
4816.927,0.63079585
4820.259,0.63172625
4823.596,0.63220093
4826.937,0.6324902
4830.283,0.63285173
4833.633,0.63344028
4836.988,0.63442749
4840.348,0.63575565
4843.712,0.63701329
4847.081,0.63799783
4850.455,0.63902953
4853.833,0.64033001
4857.216,0.64158109
4860.604,0.64250363
4863.996,0.6433457
4867.393,0.64435647
4870.795,0.64528812
4874.202,0.64589214
4877.613,0.64644176
4881.03,0.64729688
4884.451,0.64842464
4887.876,0.64973435
4891.307,0.65131898
4894.742,0.65303548
4898.182,0.65441241
4901.627,0.65535278
4905.077,0.65636016
4908.532,0.65759009
4911.991,0.65848004
4915.456,0.65881348
4918.925,0.65922926
4922.399,0.66020106
4925.878,0.66148919
4929.362,0.66287752
4932.851,0.66439709
4936.345,0.66568927
4939.844,0.66632758
4943.347,0.66682866
4946.856,0.66810531
4950.37,0.67001137
4953.888,0.67158543
4957.412,0.672485
4960.941,0.67306344
4964.474,0.67346698
4968.013,0.67375052
4971.556,0.67436237
4975.105,0.67551279
4978.659,0.67655522
4982.218,0.67694526
4985.782,0.67719117
4989.351,0.67791545
4992.925,0.67886378
4996.504,0.67965439
5000.088,0.68052733
5003.678,0.68167012
5007.272,0.68285095
5010.872,0.684136
5014.477,0.68588039
5018.087,0.68770395
5021.703,0.68864769
5025.323,0.68855199
5028.949,0.68820797
5032.58,0.6881267
5036.216,0.68822585
5039.857,0.6885359
5043.504,0.68921732
5047.156,0.69004441
5050.813,0.69068232
5054.475,0.69124638
5058.143,0.69197322
5061.816,0.69270363
5065.495,0.69327484
5069.179,0.69401239
5072.868,0.69530031
5076.562,0.69697582
5080.262,0.69851718
5083.967,0.69956399
5087.678,0.7000546
5091.394,0.70016758
5095.115,0.70029009
5098.842,0.70079431
5102.574,0.70171317
5106.312,0.7027736
5110.055,0.7037293
5113.804,0.70453346
5117.558,0.70525503
5121.318,0.70597536
5125.083,0.70677126
5128.854,0.70779596
5132.63,0.70935093
5136.412,0.71168004
5140.199,0.71453547
5143.992,0.71709751
5147.791,0.71854286
5151.595,0.71868705
5155.405,0.71806241
5159.22,0.71754342
5163.041,0.71784697
5166.868,0.71905397
5170.7,0.7205896
5174.538,0.72189528
5178.382,0.72302276
5182.231,0.72436163
5186.086,0.72612438
5189.947,0.7283681
5193.814,0.7310784
5197.686,0.73392593
5201.564,0.73643024
5205.448,0.73852726
5209.338,0.74033218
5213.233,0.74135393
5217.134,0.74098356
5221.041,0.73984439
5224.954,0.73947744
5228.873,0.74056627
5232.798,0.74241771
5236.728,0.74409578
5240.665,0.74522018
5244.607,0.74576317
5248.555,0.74594972
5252.51,0.74631732
5256.47,0.7471905
5260.436,0.7483459
5264.408,0.74959999
5268.386,0.75114309
5272.37,0.75292771
5276.36,0.75455214
5280.356,0.75608433
5284.358,0.7580205
5288.367,0.76011594
5292.381,0.76132506
5296.401,0.7612705
5300.428,0.76075202
5304.46,0.76055406
5308.499,0.76078083
5312.544,0.7613963
5316.595,0.76242129
5320.652,0.7635392
5324.715,0.76433787
5328.785,0.76502919
5332.86,0.7663957
5336.942,0.76909853
5341.031,0.77321891
5345.125,0.77793554
5349.226,0.78138065
5353.333,0.78179322
5357.446,0.77945436
5361.566,0.77659539
5365.692,0.77508341
5369.824,0.77507145
5373.962,0.77575425
5378.107,0.77653826
5382.259,0.77722335
5386.417,0.77777624
5390.581,0.77836422
5394.751,0.77926586
5398.928,0.78059464
5403.112,0.78251447
5407.302,0.78561195
5411.498,0.79028788
5415.701,0.79554781
5419.911,0.79909501
5424.127,0.79933492
5428.349,0.7969864
5432.579,0.7941497
5436.814,0.79252154
5441.057,0.79278601
5445.305,0.79475691
5449.561,0.79785172
5453.823,0.80190592
5458.092,0.80713803
5462.368,0.81281253
5466.65,0.81699027
5470.939,0.8188473
5475.234,0.81981991
5479.537,0.82094244
5483.846,0.8212524
5488.162,0.82032023
5492.484,0.81972659
5496.814,0.82055269
5501.15,0.82263633
5505.493,0.82699501
5509.843,0.83509469
5514.2,0.84533059
5518.564,0.85449791
5522.934,0.86222725
5527.312,0.86950776
5531.696,0.8753183
5536.087,0.8806751
5540.486,0.88924682
5544.891,0.89408303
5549.303,0.87228708
5553.723,0.81055447
5558.149,0.74696832
5562.582,0.67566557
5567.023,0.62693487
5571.47,0.60978029
5575.925,0.60257191
5580.387,0.61826702
5584.856,0.64908913
5589.332,0.6736855
5593.815,0.68783059
5598.305,0.69932122
5602.803,0.71080409
5607.307,0.7182283
5611.819,0.72369014
5616.339,0.73169991
5620.865,0.74032958
5625.399,0.74566282
5629.94,0.7504053
5634.489,0.75747127
5639.044,0.76330088
5643.607,0.76414253
5648.178,0.76354395
5652.756,0.76451558
5657.341,0.76502897
5661.934,0.76459095
5666.534,0.76672928
5671.142,0.77168163
5675.757,0.775099
5680.379,0.77572867
5685.01,0.77688612
5689.647,0.77906683
5694.293,0.77986158
5698.945,0.78058048
5703.606,0.78455762
5708.274,0.7902384
5712.949,0.7929382
5717.633,0.79297988
5722.324,0.79383094
5727.022,0.79532807
5731.729,0.79567439
5736.443,0.7966453
5741.165,0.79987854
5745.894,0.80296749
5750.631,0.80432857
5755.377,0.80737114
5760.13,0.81370945
5764.89,0.81849168
5769.659,0.81797754
5774.436,0.81574275
5779.22,0.81455438
5784.012,0.81254524
5788.813,0.80980263
5793.621,0.80984018
5798.437,0.81306113
5803.262,0.81644518
5808.094,0.82033723
5812.934,0.82754557
5817.782,0.83567618
5822.639,0.83857046
5827.503,0.83663334
5832.376,0.83455685
5837.257,0.83275414
5842.146,0.83028048
5847.043,0.83038584
5851.948,0.83499211
5856.862,0.84026941
5861.783,0.84298667
5866.714,0.84636356
5871.652,0.85235757
5876.598,0.85701319
5881.553,0.85765199
5886.517,0.85739867
5891.488,0.856747
5896.468,0.85271366
5901.457,0.84715001
5906.454,0.84514139
5911.459,0.8464772
5916.473,0.84809529
5921.495,0.85116976
5926.526,0.85805439
5931.565,0.86470617
5936.613,0.86495423
5941.67,0.86091587
5946.735,0.85795132
5951.809,0.85636891
5956.891,0.85541666
5961.982,0.85688054
5967.082,0.86027899
5972.19,0.86190451
5977.307,0.86139444
5982.433,0.86204153
5987.568,0.86325536
5992.711,0.86165548
5997.864,0.85883083
6003.025,0.85883118
6008.195,0.86048183
6013.374,0.85980816
6018.562,0.85774613
6023.759,0.85815062
6028.964,0.86174343
6034.179,0.86728635
6039.403,0.87433071
6044.636,0.88008621
6049.878,0.8800489
6055.129,0.87611635
6060.389,0.87464079
6065.658,0.87617877
6070.936,0.87607209
6076.224,0.87266824
6081.52,0.86923133
6086.826,0.86791807
6092.141,0.86872208
6097.466,0.87228528
6102.8,0.87816889
6108.143,0.88219629
6113.495,0.88104164
6118.857,0.87732788
6124.228,0.8748777
6129.609,0.87405393
6134.999,0.87444168
6140.398,0.87665993
6145.807,0.87985512
6151.226,0.88145319
6156.654,0.88102417
6162.091,0.88074814
6167.539,0.88167422
6172.996,0.88295038
6178.462,0.88402213
6183.938,0.88462412
6189.424,0.88387271
6194.92,0.88190376
6200.425,0.88067265
6205.94,0.88121617
6211.465,0.88222168
6217.0,0.88238408
6222.544,0.88239024
6228.099,0.88304229
6233.663,0.8836335
6239.237,0.88354433
6244.822,0.88358822
6250.416,0.88437002
6256.02,0.88523709
6261.635,0.88574907
6267.259,0.88649303
6272.893,0.88749667
6278.538,0.88783146
6284.193,0.88743579
6289.858,0.88749886
6295.533,0.88837851
6301.218,0.88922612
6306.914,0.88983256
6312.619,0.89091239
6318.336,0.89254161
6324.062,0.89437618
6329.799,0.89672756
6335.546,0.8994084
6341.304,0.90067513
6347.072,0.90006958
6352.851,0.90000094
6358.64,0.90194858
6364.44,0.90401134
6370.25,0.90401868
6376.071,0.90263481
6381.903,0.90158911
6387.745,0.90188236
6393.598,0.90475322
6399.461,0.91092605
6405.335,0.91755304
6411.221,0.91960271
6417.116,0.91668107
6423.023,0.9126496
6428.941,0.90936915
6434.869,0.90694428
6440.809,0.90623862
6446.759,0.90726633
6452.72,0.90837877
6458.693,0.90935818
6464.676,0.91213162
6470.671,0.91687677
6476.676,0.92091001
6482.693,0.92246819
6488.721,0.92206524
6494.76,0.91998864
6500.81,0.91693641
6506.872,0.91539914
6512.945,0.91629181
6519.029,0.91721466
6525.124,0.91651889
6531.231,0.91609561
6537.35,0.91739814
6543.48,0.91913753
6549.621,0.92061828
6555.774,0.92297277
6561.938,0.92569908
6568.114,0.92665982
6574.302,0.92623842
6580.501,0.92628032
6586.712,0.92610986
6592.934,0.92449925
6599.169,0.92322308
6605.415,0.92438289
6611.673,0.92724939
6617.943,0.93030631
6624.224,0.93325563
6630.518,0.93461296
6636.823,0.93206225
6643.141,0.92746556
6649.47,0.9252721
6655.812,0.92625502
6662.166,0.92786883
6668.532,0.92863433
6674.91,0.92900258
6681.3,0.9289649
6687.702,0.92853416
6694.117,0.92925912
6700.544,0.9317695
6706.983,0.93371549
6713.435,0.93303132
6719.899,0.93114228
6726.375,0.93003748
6732.864,0.92947502
6739.365,0.92908934
6745.879,0.92979041
6752.406,0.93167837
6758.945,0.93349937
6765.497,0.93503257
6772.062,0.93705926
6778.639,0.93868296
6785.229,0.93800224
6791.832,0.9357594
6798.448,0.93444726
6805.076,0.93459949
6811.718,0.93510858
6818.372,0.93566872
6825.039,0.936537
6831.72,0.93743124
6838.413,0.93853864
6845.12,0.94082405
6851.84,0.94369843
6858.573,0.94447347
6865.319,0.94234714
6872.078,0.93982841
6878.851,0.93866845
6885.637,0.93836384
6892.437,0.93843523
6899.25,0.93902728
6906.076,0.93952738
6912.916,0.93912192
6919.769,0.93854365
6926.636,0.93901923
6933.517,0.94036908
6940.411,0.94174753
6947.319,0.94304057
6954.241,0.94408112
6961.176,0.94415003
6968.125,0.94350458
6975.089,0.9434031
6982.066,0.9440317
6989.057,0.94441053
6996.062,0.94434378
7003.081,0.9445972
7010.114,0.94533592
7017.161,0.94623799
7024.223,0.94757453
7031.298,0.94946042
7038.388,0.95083832
7045.492,0.9508297
7052.611,0.95008313
7059.743,0.94948209
7066.891,0.9490495
7074.052,0.94878736
7081.229,0.94905941
7088.419,0.94975663
7095.625,0.95034234
7102.845,0.9507812
7110.079,0.95139283
7117.329,0.95208998
7124.593,0.95271396
7131.872,0.95356772
7139.166,0.95481645
7146.475,0.95593642
7153.799,0.95637232
7161.137,0.95620605
7168.491,0.95586518
7175.86,0.95568623
7183.244,0.95589858
7190.643,0.95651423
7198.058,0.95720524
7205.487,0.95757886
7212.933,0.95757749
7220.393,0.95748942
7227.869,0.95764876
7235.36,0.95815237
7242.867,0.95883948
7250.39,0.95954674
7257.928,0.96022765
7265.481,0.96072862
7273.051,0.96082921
7280.636,0.96068945
7288.237,0.96074731
7295.854,0.9610969
7303.487,0.96155423
7311.135,0.96221702
7318.8,0.96320609
7326.481,0.96407456
7334.178,0.96430197
7341.891,0.96410784
7349.62,0.96398828
7357.366,0.96402107
7365.128,0.96420557
7372.906,0.96474271
7380.701,0.96549039
7388.512,0.96601521
7396.34,0.96638016
7404.184,0.96700183
7412.045,0.96775038
7419.922,0.96821337
7427.817,0.9685469
7435.728,0.96912455
7443.656,0.96978817
7451.601,0.97026178
7459.562,0.97067098
7467.541,0.97106989
7475.537,0.97121021
7483.55,0.97116487
7491.58,0.97132129
7499.628,0.97166418
7507.692,0.97188231
7515.774,0.97202437
7523.874,0.97231541
7531.99,0.97264801
7540.125,0.97289944
7548.277,0.97324369
7556.446,0.9737212
7564.633,0.97407448
7572.838,0.97424321
7581.061,0.97439813
7589.302,0.97449879
7597.56,0.97443753
7605.837,0.97440376
7614.131,0.97455145
7622.444,0.97469402
7630.774,0.9747158
7639.123,0.97480228
7647.491,0.97500407
7655.876,0.97516057
7664.28,0.9753207
7672.702,0.97565548
7681.143,0.97604392
7689.602,0.97628898
7698.08,0.97649723
7706.577,0.97678931
7715.093,0.97702317
7723.627,0.97714674
7732.18,0.97736622
7740.752,0.97772799
7749.343,0.97804099
7757.953,0.97828249
7766.583,0.97860138
7775.231,0.97894669
7783.899,0.97917724
7792.586,0.97939129
7801.292,0.97975636
7810.018,0.98021229
7818.764,0.98066412
7827.529,0.98118439
7836.313,0.98179492
7845.117,0.98235244
7853.942,0.98280704
7862.786,0.98328734
7871.649,0.9838491
7880.533,0.98438974
7889.437,0.98485186
7898.361,0.98525875
7907.305,0.98559668
7916.27,0.98583562
7925.254,0.98605812
7934.26,0.98636178
7943.285,0.98673307
7952.331,0.98711618
7961.398,0.98754946
7970.485,0.98807383
7979.594,0.98861151
7988.723,0.98905826
7997.872,0.98943711
8007.043,0.9898164
8016.235,0.99017781
8025.448,0.99047746
8034.682,0.99076976
8043.937,0.99110489
8053.214,0.99143619
8062.512,0.99172023
8071.832,0.99198126
8081.173,0.9922083
8090.535,0.99235694
8099.92,0.99251063
8109.326,0.99280125
8118.754,0.99317981
8128.204,0.99349562
8137.676,0.99375097
8147.169,0.99402811
8156.686,0.99429636
8166.224,0.99452943
8175.785,0.99484578
8185.368,0.99529138
8194.973,0.99571164
8204.601,0.99600713
8214.252,0.99625697
8223.925,0.99648462
8233.621,0.9966158
8243.34,0.99672183
8253.082,0.99698241
8262.847,0.99738723
8272.635,0.99777001
8282.446,0.99809314
8292.281,0.9984276
8302.139,0.99876986
8312.02,0.99909395
8321.925,0.9994583
8331.853,0.99988084
8341.805,0.0100026112
8351.781,0.0100054156
8361.781,0.0100079957
8371.804,0.0100109936
8381.852,0.0100140008
8391.924,0.0100166102
8402.02,0.0100192469
8412.14,0.0100223451
8422.285,0.0100254483
8432.454,0.0100277808
8442.648,0.0100293952
8452.866,0.0100309228
8463.109,0.0100324663
8473.377,0.0100337696
8483.67,0.010035275
8493.988,0.0100373634
8504.331,0.0100392098
8514.699,0.0100401039
8525.092,0.0100410753
8535.511,0.0100429621
8545.955,0.0100447012
8556.425,0.0100454671
8566.921,0.0100464795
8577.442,0.0100483714
8587.989,0.010049834
8598.562,0.0100503272
8609.161,0.0100510239
8619.786,0.0100520069
8630.437,0.0100523679
8641.115,0.010052797
8651.819,0.0100545014
8662.55,0.0100564392
8673.307,0.0100574196
8684.091,0.0100586086
8694.902,0.0100608932
8705.739,0.010063077
8716.604,0.0100646974
8727.496,0.0100669331
8738.415,0.010069523
8749.361,0.0100710043
8760.335,0.0100718949
8771.336,0.0100735156
8782.365,0.0100752228
8793.422,0.0100764911
8804.507,0.010078737
8815.619,0.0100822581
8826.76,0.0100854911
8837.928,0.0100886504
8849.125,0.0100931455
8860.351,0.0100976871
8871.604,0.0101003368
8882.887,0.0101026294
8894.198,0.0101064364
8905.538,0.0101100629
8916.907,0.0101121158
8928.305,0.0101143139
8939.732,0.0101170263
8951.188,0.0101181314
8962.673,0.01011819
8974.189,0.0101197289
8985.733,0.0101216165
8997.308,0.0101211445
9008.912,0.0101199038
9020.546,0.0101203087
9032.21,0.0101203949
9043.905,0.0101181357
9055.629,0.0101159631
9067.384,0.0101154866
9079.17,0.0101144951
9090.986,0.0101123578
9102.833,0.0101115083
9114.711,0.0101114215
9126.62,0.0101089906
9138.56,0.0101047181
9150.531,0.0101014543
9162.534,0.0100985644
9174.568,0.0100942752
9186.634,0.0100903175
9198.731,0.0100887703
9210.86,0.0100879271
9223.022,0.0100861505
9235.215,0.0100847583
9247.441,0.0100842864
9259.699,0.0100828026
9271.99,0.0100800299
9284.313,0.0100781288
9296.669,0.010077819
9309.058,0.010077774
9321.48,0.0100776456
9333.935,0.010078039
9346.423,0.0100784856
9358.945,0.0100782903
9371.5,0.0100783477
9384.089,0.0100796652
9396.712,0.0100817397
9409.369,0.0100835092
9422.06,0.0100848675
9434.785,0.0100860522
9447.545,0.0100870687
9460.339,0.0100881461
9473.167,0.0100899767
9486.031,0.0100926159
9498.929,0.010095135
9511.863,0.0100968615
9524.832,0.010098286
9537.836,0.0101001407
9550.876,0.0101024372
9563.951,0.0101048915
9577.062,0.0101075576
9590.209,0.0101101219
9603.393,0.0101119235
9616.612,0.0101131487
9629.868,0.0101148462
9643.16,0.0101173171
9656.49,0.0101199611
9669.856,0.0101225935
9683.259,0.0101252818
9696.699,0.0101272403
9710.176,0.0101277792
9723.691,0.0101274429
9737.244,0.0101269298
9750.834,0.0101258507
9764.463,0.0101239538
9778.129,0.0101219054
9791.834,0.0101200191
9805.577,0.0101179144
9819.359,0.0101161418
9833.18,0.0101156034
9847.039,0.0101158948
9860.938,0.0101158253
9874.875,0.0101155704
9888.853,0.0101159538
9902.869,0.0101167182
9916.926,0.0101169816
9931.022,0.0101168171
9945.159,0.0101166516
9959.336,0.0101164974
9973.553,0.0101165429
9987.811,0.0101174823
10002.109,0.0101192821
10016.449,0.0101209156
10030.83,0.0101216582
10045.252,0.0101219621
10059.715,0.0101224675
10074.221,0.0101231966
10088.768,0.0101240519
10103.357,0.0101253753
10117.988,0.0101272844
10132.662,0.0101293446
10147.378,0.0101312266
10162.137,0.0101333116
10176.939,0.010135898
10191.784,0.0101386199
10206.672,0.0101411527
10221.604,0.0101438346
10236.58,0.0101466638
10251.6,0.0101489802
10266.663,0.0101506975
10281.771,0.0101525829
10296.924,0.0101547358
10312.121,0.0101565946
10327.363,0.0101582638
10342.65,0.0101603168
10357.982,0.0101622698
10373.36,0.0101634262
10388.784,0.0101642094
10404.253,0.0101651833
10419.769,0.0101658482
10435.331,0.0101659316
10450.939,0.0101659026
10466.594,0.0101656821
10482.296,0.010164845
10498.045,0.0101641295
10513.842,0.0101643264
10529.686,0.0101647584
10545.577,0.010164997
10561.517,0.0101661038
10577.505,0.0101681449
10593.542,0.0101695387
10609.627,0.0101700482
10625.761,0.0101708423
10641.944,0.010171193
10658.176,0.0101696722
10674.458,0.0101675782
10690.79,0.0101667322
10707.172,0.0101660518
10723.604,0.0101647581
10740.086,0.010164754
10756.619,0.0101664168
10773.203,0.0101669573
10789.839,0.0101660483
10806.525,0.0101663033
10823.264,0.0101673381
10840.054,0.0101665949
10856.896,0.0101655666
10873.791,0.0101671375
10890.738,0.0101694147
10907.738,0.0101696286
10924.791,0.010170025
10941.898,0.010172621
10959.058,0.0101746337
10976.272,0.0101745618
10993.541,0.0101754767
11010.863,0.0101780681
11028.24,0.0101791387
11045.672,0.0101786691
11063.16,0.0101795573
11080.702,0.0101807025
11098.301,0.0101794758
11115.955,0.0101780213
11133.665,0.0101790961
11151.432,0.010180085
11169.256,0.0101783062
11187.137,0.01017592
11205.075,0.0101746224
11223.07,0.0101722647
11241.124,0.010168421
11259.235,0.0101655256
11277.405,0.0101638441
11295.634,0.010161757
11313.921,0.0101601536
11332.268,0.0101601832
11350.675,0.0101598095
11369.141,0.0101571776
11387.667,0.0101538829
11406.254,0.010151429
11424.901,0.0101490751
11443.61,0.0101464752
11462.38,0.0101443227
11481.211,0.0101421102
11500.105,0.010139122
11519.06,0.0101362929
11538.079,0.0101344586
11557.16,0.0101328697
11576.304,0.0101312873
11595.511,0.0101304762
11614.783,0.010130279
11634.118,0.0101297382
11653.518,0.0101290407
11672.983,0.0101288833
11692.513,0.0101289938
11712.108,0.0101287832
11731.769,0.0101286164
11751.496,0.0101288467
11771.29,0.0101292698
11791.15,0.010129736
11811.077,0.0101306685
11831.072,0.0101323232
11851.134,0.0101346081
11871.265,0.010137119
11891.464,0.010139743
11911.731,0.0101425499
11932.068,0.0101450254
11952.475,0.0101459847
11972.951,0.0101456905
11993.497,0.0101459606
12014.114,0.0101475742
12034.802,0.0101493271
12055.562,0.0101510333
12076.393,0.0101533941
12097.296,0.0101551747
12118.271,0.0101544479
12139.32,0.0101524047
12160.441,0.0101509539
12181.636,0.010149193
12202.905,0.0101466344
12224.249,0.0101462357
12245.667,0.0101487662
12267.16,0.0101502347
12288.729,0.0101488205
12310.373,0.0101476664
12332.094,0.0101475331
12353.892,0.0101452583
12375.767,0.0101410056
12397.719,0.0101382622
12419.75,0.0101364864
12441.859,0.0101330795
12464.046,0.0101303979
12486.313,0.0101317601
12508.659,0.0101342723
12531.086,0.0101339641
12553.593,0.010132342
12576.18,0.0101315413
12598.85,0.0101296237
12621.601,0.0101260242
12644.434,0.0101240834
12667.35,0.0101245051
12690.349,0.0101235942
12713.432,0.0101209347
12736.599,0.010120327
12759.85,0.0101222957
12783.187,0.010123335
12806.608,0.0101231037
12830.116,0.0101242554
12853.71,0.0101262194
12877.391,0.0101261243
12901.159,0.0101248156
12925.016,0.0101251647
12948.96,0.010126611
12972.993,0.0101272399
12997.116,0.0101288602
13021.329,0.0101333842
13045.631,0.010138023
13070.025,0.0101395066
13094.51,0.0101395033
13119.087,0.0101402475
13143.756,0.0101402944
13168.518,0.0101392872
13193.373,0.0101407578
13218.322,0.0101449825
13243.366,0.010147273
13268.505,0.0101465544
13293.74,0.0101473087
13319.07,0.0101501624
13344.497,0.0101511782
13370.021,0.0101506501
13395.644,0.0101520701
13421.364,0.0101532535
13447.183,0.0101505733
13473.102,0.0101473903
13499.121,0.0101475507
13525.24,0.0101469671
13551.461,0.0101425705
13577.783,0.0101388518
13604.208,0.0101379126
13630.736,0.0101349699
13657.367,0.010130336
13684.103,0.0101295661
13710.943,0.0101300887
13737.889,0.0101238819
13764.941,0.010113751
13792.099,0.0101081215
13819.365,0.0101057147
13846.739,0.0101016584
13874.221,0.0100995908
13901.813,0.01010167
13929.515,0.010100947
13957.327,0.0100951121
13985.25,0.0100921121
14013.285,0.010093
14041.433,0.0100900384
14069.694,0.010084286
14098.068,0.0100837445
14126.558,0.0100852009
14155.163,0.0100808381
14183.883,0.0100747939
14212.721,0.0100730168
14241.676,0.0100691552
14270.749,0.0100598161
14299.94,0.010054554
14329.252,0.0100570068
14358.684,0.0100571183
14388.237,0.0100523853
14417.911,0.0100501426
14447.709,0.0100478449
14477.629,0.0100369113
14507.674,0.0100239084
14537.844,0.0100190762
14568.139,0.0100169075
14598.561,0.0100099393
14629.109,0.010005584
14659.786,0.0100066441
14690.592,0.0100021745
14721.528,0.99901493
14752.594,0.99830168
14783.791,0.99790817
14815.121,0.99657988
14846.583,0.99463637
14878.179,0.9933104
14909.91,0.99201726
14941.777,0.99004742
14973.78,0.98845379
15005.92,0.9879686
15038.198,0.98681905
15070.616,0.98434086
15103.173,0.98162684
15135.871,0.97914196
15168.712,0.97556863
15201.695,0.97156876
15234.821,0.96789074
15268.092,0.96392219
15301.509,0.95805591
15335.072,0.95177994
15368.783,0.94509105
15402.642,0.9375676
15436.651,0.92794204
15470.81,0.9192682
15505.12,0.90977722
15539.583,0.89947512
15574.199,0.88735907
15608.97,0.87722726
15643.896,0.86373356
15678.979,0.84860018
15714.22,0.83044715
15749.619,0.81576688
15785.178,0.79918378
15820.897,0.78312398
15856.779,0.76831788
15892.824,0.75943998
15929.033,0.74396701
15965.407,0.72262983
