Database of Origin,University of Winnipeg Spectrophotometer Facility
Sample Description,16.11. Meteorites - HEDs 16.11.3. NASA samples (4) Bruker Vertex 70 FTIR spectrometer
Other Information,MIR Glowbar KBr Beam Splitter MCT cryo cooled Dectect.
Date Added,2018-07-23 23:49:05.581443

Data ID,FTIR_MET2_6_21      
Sample ID,NWA 5751
Mineral Name,Howardite
Grain Size,250-500 um
Viewing Geometry,i30/ e0
Resolution,7.71cm-1

Wavelength
1672.316177,0.25921
1674.476792,0.25815
1676.642997,0.25656
1678.814814,0.25539
1680.992268,0.25463
1683.175374,0.25413
1685.364158,0.25421
1687.558643,0.25419
1689.758849,0.25351
1691.9648,0.25261
1694.176519,0.25253
1696.394027,0.25274
1698.61735,0.25182
1700.846507,0.25037
1703.081521,0.2494
1705.322418,0.2491
1707.569219,0.24895
1709.821949,0.24828
1712.08063,0.24728
1714.345286,0.24623
1716.615945,0.24558
1718.892624,0.24546
1721.175349,0.24515
1723.464146,0.24461
1725.759038,0.24436
1728.060049,0.24405
1730.367205,0.24316
1732.68053,0.24234
1735.000051,0.24202
1737.325788,0.24164
1739.657769,0.24088
1741.996018,0.24013
1744.340562,0.23983
1746.691425,0.23949
1749.048633,0.23859
1751.412211,0.23746
1753.78219,0.23708
1756.158588,0.2373
1758.541435,0.23701
1760.930758,0.23654
1763.326581,0.23623
1765.728933,0.23544
1768.13784,0.23438
1770.553328,0.23384
1772.975429,0.23373
1775.404162,0.23362
1777.839558,0.23341
1780.281645,0.23293
1782.73045,0.23229
1785.186001,0.23203
1787.648326,0.23185
1790.117454,0.23143
1792.593414,0.23085
1795.07623,0.23006
1797.565933,0.22936
1800.062552,0.22862
1802.566116,0.22807
1805.076653,0.22808
1807.594193,0.22781
1810.118766,0.2271
1812.650403,0.22685
1815.189129,0.2265
1817.734976,0.22565
1820.287974,0.22513
1822.848154,0.22513
1825.415545,0.22482
1827.990179,0.22387
1830.572085,0.22338
1833.161299,0.22343
1835.757844,0.22302
1838.361756,0.22216
1840.973065,0.22104
1843.591803,0.22037
1846.218001,0.22038
1848.851693,0.2205
1851.492909,0.22082
1854.141686,0.22078
1856.798049,0.22035
1859.462034,0.21987
1862.133675,0.21942
1864.813003,0.21918
1867.500053,0.21921
1870.194858,0.21911
1872.897451,0.21844
1875.60787,0.21751
1878.326142,0.21703
1881.052305,0.21691
1883.786392,0.21687
1886.528439,0.21706
1889.27848,0.21704
1892.03655,0.21682
1894.802685,0.21672
1897.576923,0.21637
1900.359294,0.21579
1903.149835,0.21542
1905.948585,0.21508
1908.755578,0.2149
1911.570851,0.21478
1914.394441,0.21446
1917.226385,0.21421
1920.066724,0.21373
1922.915487,0.21342
1925.772716,0.21341
1928.638449,0.21316
1931.512723,0.21306
1934.395578,0.21298
1937.28705,0.21244
1940.18718,0.21194
1943.09601,0.21192
1946.013571,0.21178
1948.939907,0.21138
1951.875057,0.21127
1954.819061,0.21148
1957.771959,0.21169
1960.733792,0.21177
1963.7046,0.21166
1966.684429,0.21137
1969.67331,0.21106
1972.671291,0.2109
1975.678411,0.21092
1978.694713,0.21087
1981.72024,0.21071
1984.755033,0.21056
1987.799135,0.21029
1990.852594,0.21011
1993.915443,0.21029
1996.987732,0.21038
2000.069502,0.21045
2003.160799,0.21065
2006.261667,0.2105
2009.37215,0.21004
2012.492292,0.20983
2015.622144,0.20999
2018.761742,0.20996
2021.911136,0.20977
2025.070371,0.20988
2028.239495,0.20994
2031.418553,0.20981
2034.607593,0.20994
2037.806661,0.21016
2041.015809,0.21022
2044.235076,0.21029
2047.464515,0.21022
2050.704173,0.20995
2053.9541,0.20968
2057.214344,0.20958
2060.484955,0.20974
2063.765981,0.21002
2067.057478,0.2102
2070.359486,0.2101
2073.672061,0.21001
2076.995253,0.21038
2080.329113,0.21073
2083.673693,0.21075
2087.029044,0.21072
2090.39522,0.2108
2093.772276,0.21098
2097.160256,0.2111
2100.559219,0.21098
2103.969217,0.21087
2107.390304,0.21097
2110.822536,0.21123
2114.265965,0.21146
2117.720647,0.21161
2121.186643,0.21167
2124.663997,0.21173
2128.152772,0.21194
2131.653022,0.21204
2135.164806,0.21211
2138.68818,0.21231
2142.223201,0.21263
2145.769927,0.21299
2149.328422,0.21308
2152.898735,0.21304
2156.480928,0.21319
2160.075063,0.21363
2163.681197,0.21409
2167.299393,0.21415
2170.929709,0.21401
2174.572208,0.21406
2178.226956,0.21429
2181.894004,0.21453
2185.57342,0.2148
2189.265266,0.21504
2192.969606,0.21533
2196.686503,0.21567
2200.416021,0.21586
2204.158225,0.21591
2207.913183,0.21585
2211.680953,0.21605
2215.461603,0.21674
2219.255201,0.21747
2223.061813,0.21786
2226.881507,0.21791
2230.714349,0.21796
2234.560407,0.21816
2238.419756,0.21839
2242.292454,0.21875
2246.178575,0.21916
2250.07819,0.21945
2253.991369,0.21963
2257.918183,0.21983
2261.858702,0.22004
2265.813,0.22029
2269.781154,0.22068
2273.763225,0.22107
2277.759293,0.22126
2281.769432,0.22139
2285.793716,0.22161
2289.832221,0.2219
2293.88502,0.22221
2297.952192,0.2225
2302.033816,0.22268
2306.129961,0.22291
2310.240709,0.22339
2314.366139,0.22378
2318.506328,0.2239
2322.661356,0.22399
2326.831304,0.22433
2331.016252,0.22477
2335.216286,0.22515
2339.431477,0.22556
2343.661913,0.22576
2347.907677,0.22582
2352.168852,0.22591
2356.445521,0.22611
2360.737771,0.22658
2365.045686,0.2271
2369.369358,0.22758
2373.708861,0.22824
2378.06429,0.22878
2382.435731,0.22887
2386.823273,0.22887
2391.227005,0.22916
2395.647017,0.22953
2400.0834,0.22976
2404.53625,0.22997
2409.005647,0.23047
2413.491691,0.23105
2417.994473,0.23135
2422.514088,0.23139
2427.050631,0.23152
2431.604196,0.23199
2436.17488,0.23244
2440.762785,0.23276
2445.367997,0.23306
2449.99062,0.23339
2454.630753,0.23384
2459.288496,0.23422
2463.963948,0.23435
2468.657212,0.23444
2473.368389,0.23464
2478.097588,0.23498
2482.844901,0.23523
2487.610438,0.23535
2492.394303,0.23549
2497.196603,0.23574
2502.017445,0.2362
2506.856937,0.23657
2511.715186,0.2367
2516.592308,0.23681
2521.488402,0.23684
2526.403583,0.2369
2531.337964,0.2369
2536.291658,0.2367
2541.264778,0.23658
2546.257439,0.2366
2551.269756,0.23697
2556.301852,0.23745
2561.353831,0.23717
2566.425818,0.23711
2571.517932,0.2378
2576.630293,0.23798
2581.763021,0.23756
2586.91624,0.23743
2592.090072,0.23785
2597.284647,0.2383
2602.500077,0.23845
2607.736495,0.2384
2612.994027,0.23863
2618.272802,0.23861
2623.572949,0.23883
2628.894597,0.23863
2634.237878,0.23829
2639.60293,0.23897
2644.989874,0.2396
2650.398851,0.23964
2655.829995,0.23952
2661.283444,0.2393
2666.759335,0.23808
2672.257807,0.23673
2677.779,0.23609
2683.323062,0.2352
2688.890121,0.23312
2694.480328,0.22901
2700.093828,0.22421
2705.730766,0.21917
2711.39129,0.21328
2717.075548,0.20802
2722.783689,0.20277
2728.515871,0.19968
2734.272233,0.19782
2740.052934,0.19419
2745.85813,0.19172
2751.687977,0.1902
2757.542631,0.18767
2763.422252,0.18539
2769.327,0.18359
2775.257043,0.18256
2781.212529,0.18167
2787.19363,0.18028
2793.200512,0.17949
2799.233341,0.17898
2805.292287,0.17808
2811.377519,0.17772
2817.489208,0.17735
2823.627536,0.1769
2829.79266,0.17651
2835.984766,0.17544
2842.20403,0.17435
2848.450631,0.17346
2854.72475,0.17268
2861.02657,0.17235
2867.356274,0.17213
2873.714055,0.17184
2880.100086,0.1716
2886.514561,0.17124
2892.957673,0.17075
2899.429613,0.17021
2905.930575,0.16974
2912.460755,0.16968
2919.020351,0.1698
2925.609569,0.16974
2932.228594,0.16968
2938.877637,0.16959
2945.556904,0.16934
2952.266599,0.16912
2959.006933,0.16905
2965.778115,0.16911
2972.580357,0.16909
2979.413883,0.16893
2986.278891,0.16886
2993.175608,0.16901
3000.104254,0.16923
3007.065051,0.16936
3014.058225,0.16952
3021.084,0.16976
3028.142607,0.17001
3035.234283,0.1703
3042.359245,0.17062
3049.517737,0.17115
3056.709994,0.17151
3063.936258,0.17135
3071.196769,0.17131
3078.491772,0.17171
3085.821513,0.17223
3093.186251,0.17262
3100.586217,0.17283
3108.021674,0.17297
3115.492879,0.17328
3123.000089,0.17382
3130.543567,0.17436
3138.123574,0.1748
3145.740377,0.17523
3153.394256,0.17576
3161.08546,0.17644
3168.814274,0.17711
3176.580974,0.17761
3184.38584,0.17811
3192.229154,0.1787
3200.1112,0.17928
3208.032266,0.17981
3215.992653,0.18042
3223.992633,0.18117
3232.032514,0.18175
3240.112594,0.18214
3248.233176,0.18244
3256.394564,0.18288
3264.597068,0.18357
3272.840999,0.18428
3281.126681,0.18493
3289.454413,0.18559
3297.824524,0.1863
3306.237341,0.18676
3314.693189,0.18691
3323.192401,0.18705
3331.735311,0.18714
3340.322256,0.18714
3348.95359,0.18712
3357.629634,0.18719
3366.350748,0.18765
3375.117285,0.1884
3383.929601,0.18888
3392.788054,0.18894
3401.693008,0.18866
3410.64483,0.18836
3419.643903,0.18853
3428.690579,0.18937
3437.785247,0.19062
3446.928291,0.19172
3456.120099,0.19235
3465.36106,0.19261
3474.651571,0.19284
3483.99203,0.19327
3493.382855,0.19367
3502.824429,0.1941
3512.317177,0.19511
3521.861515,0.19638
3531.457866,0.19725
3541.106657,0.1978
3550.808317,0.19827
3560.563284,0.19862
3570.372009,0.19891
3580.234914,0.19927
3590.15246,0.1997
3600.125104,0.20018
3610.153306,0.20053
3620.237532,0.20074
3630.378252,0.20102
3640.575942,0.20124
3650.831097,0.20148
3661.144177,0.2018
3671.515689,0.2021
3681.946129,0.2025
3692.436003,0.20291
3702.985818,0.20323
3713.596091,0.20348
3724.267342,0.20367
3735.000113,0.20371
3745.79491,0.20376
3756.652285,0.20406
3767.572784,0.20456
3778.556959,0.20507
3789.605369,0.20553
3800.71858,0.20586
3811.897162,0.20601
3823.141709,0.2062
3834.452778,0.20651
3845.830974,0.20669
3857.276898,0.20676
3868.791155,0.20684
3880.37436,0.20692
3892.027134,0.20706
3903.750106,0.20714
3915.543926,0.207
3927.409209,0.2067
3939.346621,0.20646
3951.356822,0.20639
3963.44048,0.20625
3975.598271,0.20588
3987.830879,0.20569
4000.138997,0.20588
4012.523342,0.20601
4024.984593,0.20591
4037.523484,0.20593
4050.140742,0.20617
4062.837106,0.20629
4075.613322,0.20617
4088.470144,0.20611
4101.408338,0.20616
4114.428697,0.20583
4127.531971,0.20529
4140.718972,0.20514
4153.990505,0.20505
4167.347385,0.2048
4180.790439,0.20526
4194.320503,0.20825
4207.938425,0.21499
4221.64508,0.22446
4235.441304,0.22873
4249.327994,0.22519
4263.306045,0.22329
4277.376359,0.22265
4291.539855,0.21956
4305.79746,0.2147
4320.150116,0.20996
4334.598795,0.20642
4349.144426,0.20399
4363.788008,0.20234
4378.530532,0.20139
4393.373006,0.2009
4408.316449,0.20058
4423.361896,0.20026
4438.510393,0.19973
4453.763023,0.1991
4469.120824,0.19861
4484.584908,0.19835
4500.15638,0.1983
4515.836365,0.19824
4531.626,0.19793
4547.52644,0.19741
4563.538854,0.19674
4579.664452,0.19602
4595.904394,0.19527
4612.259923,0.19424
4628.732277,0.19295
4645.322713,0.19169
4662.032504,0.19047
4678.862943,0.18916
4695.815342,0.18783
4712.891054,0.18651
4730.091384,0.18532
4747.417723,0.18429
4764.871462,0.18333
4782.45401,0.1824
4800.1668,0.18155
4818.011283,0.18069
4835.988934,0.1798
4854.101273,0.17915
4872.349771,0.17867
4890.735994,0.17801
4909.261506,0.17729
4927.927896,0.1767
4946.736778,0.17603
4965.68979,0.17513
4984.788594,0.17435
5004.034903,0.17375
5023.430384,0.17307
5042.976803,0.17242
5062.675928,0.17169
5082.529556,0.17085
5102.539511,0.16992
5122.707649,0.16889
5143.03585,0.16801
5163.526056,0.16725
5184.180157,0.16677
5205.000154,0.16658
5225.988055,0.16669
5247.145898,0.16697
5268.475756,0.1672
5289.979735,0.16752
5311.659976,0.16809
5333.518684,0.16843
5355.558014,0.16827
5377.780242,0.16814
5400.187657,0.168
5422.78258,0.1677
5445.567377,0.16768
5468.544451,0.16767
5491.716246,0.16775
5515.085278,0.16807
5538.654014,0.16802
5562.425058,0.16717
5586.401024,0.1662
5610.584574,0.16583
5634.978416,0.16532
5659.585305,0.16448
5684.408043,0.16364
5709.449517,0.1626
5734.712564,0.16179
5760.200171,0.16111
5785.915346,0.16047
5811.861151,0.15939
5838.040701,0.15741
5864.457171,0.15568
5891.11379,0.15397
5918.013883,0.15225
5945.160732,0.15016
5972.557781,0.14825
6000.208507,0.14754
6028.116449,0.14749
6056.285213,0.14683
6084.718472,0.14626
6113.41997,0.14643
6142.393557,0.14667
6171.643046,0.14668
6201.172433,0.14663
6230.985758,0.14694
6261.087133,0.14744
6291.480755,0.14801
6322.1709,0.14876
6353.161929,0.14971
6384.458328,0.15055
6416.064553,0.15055
6447.985267,0.15041
6480.225188,0.15026
6512.789128,0.14969
6545.681997,0.14944
6578.908804,0.14888
6612.47466,0.14823
6646.384825,0.14812
6680.644535,0.14838
6715.259268,0.14854
6750.234571,0.14835
6785.576107,0.14758
6821.28966,0.14682
6857.381134,0.14628
6893.856559,0.14618
6930.722144,0.14646
6967.984085,0.14621
7005.648858,0.14572
7043.72303,0.14546
7082.213314,0.14566
7121.126567,0.14615
7160.469802,0.14646
7200.250183,0.14682
7240.47509,0.14707
7281.15191,0.14697
7322.288355,0.14693
7363.892259,0.14723
7405.971636,0.14744
7448.534685,0.14724
7491.589791,0.14696
7535.145539,0.14666
7579.210768,0.14607
7623.794353,0.1456
7668.905555,0.14535
7714.553795,0.14485
7760.74872,0.144
7807.500211,0.14308
7854.818386,0.14216
7902.713612,0.14143
7951.196573,0.14118
8000.278026,0.14104
8049.969186,0.14061
8100.281485,0.1401
8151.226643,0.13975
8202.816677,0.13944
8255.063908,0.13903
8307.980976,0.13832
8361.580914,0.13714
8415.876885,0.1356
8470.882607,0.13411
8526.612089,0.1329
8583.07971,0.132
8640.300232,0.13144
8698.288814,0.13136
8757.061026,0.13237
8816.632938,0.13493
8877.020825,0.13921
8938.241648,0.14471
9000.312761,0.14981
9063.252001,0.15329
9127.077709,0.15454
9191.808745,0.15379
9257.464511,0.15245
9324.065051,0.15162
9391.630729,0.15117
9460.182767,0.15083
9529.742923,0.15054
9600.3336,0.14957
9671.977869,0.14756
9744.699495,0.14483
9818.522964,0.14166
9893.473606,0.1389
9969.577237,0.13828
10046.86077,0.14
10125.35186,0.14213
10205.07902,0.1435
10286.0717,0.14445
10368.36026,0.14499
10451.97605,0.14483
10536.95157,0.14384
10623.32001,0.14247
10711.11603,0.14107
10800.37531,0.13907
10891.13475,0.13624
10983.43249,0.13484
11077.30797,0.13751
11172.80199,0.14298
11269.9569,0.14689
11368.81615,0.14771
11469.42513,0.14724
11571.83069,0.14636
11676.0814,0.14492
11782.22758,0.14365
11890.32139,0.14293
12000.41694,0.14238
12112.5705,0.14218
12226.84001,0.1422
12343.28609,0.14155
12461.97152,0.14019
12582.96151,0.13875
12706.32386,0.13721
12832.12902,0.13568
12960.45029,0.13451
13091.36408,0.13356
13224.94941,0.1328
13361.28907,0.1326
13500.46914,0.13276
13642.57932,0.13339
13787.71312,0.13473
13935.96807,0.13594
14087.44596,0.13617
14242.25324,0.13568
14400.50047,0.13528
14562.30382,0.13496
14727.78452,0.13406
14897.06937,0.13273
15070.29108,0.13146
15247.58859,0.13102
15429.10747,0.13064
15615.00054,0.12928
15805.42735,0.12739
16000.55605,0.12599
16200.56297,0.12713
16405.63335,0.13097
16615.96195,0.13528
16831.75363,0.1388
17053.22403,0.14028
17280.60061,0.14084
17514.12221,0.14347
17754.04165,0.14651
18000.62552,0.14766
18254.15542,0.14858
18514.92902,0.15007
18783.26128,0.15098
19059.48566,0.15052
19343.95592,0.15051
19637.04612,0.15323
19939.15447,0.15586
20250.70371,0.15741
20572.1434,0.15835
20903.95211,0.15414
21246.63979,0.14792
21600.75039,0.1482
21966.86522,0.15238
22345.60422,0.15265
22737.6323,0.15189
23143.66139,0.15353
23564.45516,0.15553
24000.83388,0.15678
24453.67973,0.15742
24923.94272,0.16065
25412.64804,0.1619
