Database of Origin,University of Winnipeg Spectrophotometer Facility
Sample Description,16.11. Meteorites - HEDs 16.11.3. NASA samples (4) Bruker Vertex 70 FTIR spectrometer
Other Information,MIR Glowbar KBr Beam Splitter MCT cryo cooled Dectect.
Date Added,2018-07-23 23:49:06.298378

Data ID,FTIR_MET2_6_52      
Sample ID,NWA 1942
Mineral Name,Howardite
Grain Size,90-250 um
Viewing Geometry,i30/ e0
Resolution,7.71cm-1

Wavelength
1672.316177,0.25767
1674.476792,0.2573
1676.642997,0.25678
1678.814814,0.25629
1680.992268,0.25547
1683.175374,0.25463
1685.364158,0.2541
1687.558643,0.25327
1689.758849,0.25209
1691.9648,0.25072
1694.176519,0.25002
1696.394027,0.25021
1698.61735,0.25011
1700.846507,0.24923
1703.081521,0.24855
1705.322418,0.24855
1707.569219,0.24812
1709.821949,0.24665
1712.08063,0.24482
1714.345286,0.24373
1716.615945,0.24374
1718.892624,0.24435
1721.175349,0.2445
1723.464146,0.24375
1725.759038,0.24294
1728.060049,0.24301
1730.367205,0.24307
1732.68053,0.24184
1735.000051,0.24052
1737.325788,0.24018
1739.657769,0.23986
1741.996018,0.23911
1744.340562,0.23883
1746.691425,0.23862
1749.048633,0.23794
1751.412211,0.23733
1753.78219,0.23643
1756.158588,0.23496
1758.541435,0.23365
1760.930758,0.23303
1763.326581,0.23306
1765.728933,0.23285
1768.13784,0.23244
1770.553328,0.23248
1772.975429,0.23216
1775.404162,0.2313
1777.839558,0.23096
1780.281645,0.23126
1782.73045,0.23085
1785.186001,0.23007
1787.648326,0.22938
1790.117454,0.22842
1792.593414,0.22807
1795.07623,0.22814
1797.565933,0.22754
1800.062552,0.22661
1802.566116,0.22601
1805.076653,0.22571
1807.594193,0.22548
1810.118766,0.22511
1812.650403,0.22448
1815.189129,0.22396
1817.734976,0.2236
1820.287974,0.22325
1822.848154,0.22348
1825.415545,0.22357
1827.990179,0.22249
1830.572085,0.22141
1833.161299,0.22105
1835.757844,0.2202
1838.361756,0.2191
1840.973065,0.21887
1843.591803,0.21951
1846.218001,0.2201
1848.851693,0.2205
1851.492909,0.22028
1854.141686,0.21902
1856.798049,0.21821
1859.462034,0.21817
1862.133675,0.21833
1864.813003,0.21809
1867.500053,0.2171
1870.194858,0.21598
1872.897451,0.21542
1875.60787,0.21563
1878.326142,0.21619
1881.052305,0.21639
1883.786392,0.216
1886.528439,0.21546
1889.27848,0.21484
1892.03655,0.21455
1894.802685,0.2145
1897.576923,0.21401
1900.359294,0.21339
1903.149835,0.21286
1905.948585,0.21299
1908.755578,0.21377
1911.570851,0.21381
1914.394441,0.21315
1917.226385,0.21261
1920.066724,0.2124
1922.915487,0.21247
1925.772716,0.21253
1928.638449,0.21259
1931.512723,0.21279
1934.395578,0.21256
1937.28705,0.21198
1940.18718,0.21168
1943.09601,0.21133
1946.013571,0.21086
1948.939907,0.21067
1951.875057,0.21075
1954.819061,0.21096
1957.771959,0.21158
1960.733792,0.21223
1963.7046,0.21232
1966.684429,0.212
1969.67331,0.21157
1972.671291,0.2114
1975.678411,0.21123
1978.694713,0.21111
1981.72024,0.21137
1984.755033,0.2115
1987.799135,0.21126
1990.852594,0.21128
1993.915443,0.21136
1996.987732,0.21098
2000.069502,0.21054
2003.160799,0.21043
2006.261667,0.21068
2009.37215,0.21103
2012.492292,0.2111
2015.622144,0.21113
2018.761742,0.21164
2021.911136,0.21185
2025.070371,0.21135
2028.239495,0.21118
2031.418553,0.2116
2034.607593,0.212
2037.806661,0.21208
2041.015809,0.21201
2044.235076,0.21209
2047.464515,0.21201
2050.704173,0.21188
2053.9541,0.21217
2057.214344,0.21238
2060.484955,0.21257
2063.765981,0.21313
2067.057478,0.21345
2070.359486,0.21338
2073.672061,0.2135
2076.995253,0.21381
2080.329113,0.21396
2083.673693,0.21405
2087.029044,0.2144
2090.39522,0.21501
2093.772276,0.21551
2097.160256,0.21564
2100.559219,0.21556
2103.969217,0.21573
2107.390304,0.2162
2110.822536,0.21669
2114.265965,0.21698
2117.720647,0.21722
2121.186643,0.21761
2124.663997,0.21797
2128.152772,0.21814
2131.653022,0.21839
2135.164806,0.21897
2138.68818,0.21959
2142.223201,0.22044
2145.769927,0.22124
2149.328422,0.22145
2152.898735,0.22152
2156.480928,0.22199
2160.075063,0.22243
2163.681197,0.22259
2167.299393,0.22316
2170.929709,0.224
2174.572208,0.22434
2178.226956,0.22461
2181.894004,0.22505
2185.57342,0.2254
2189.265266,0.22608
2192.969606,0.2268
2196.686503,0.22698
2200.416021,0.22716
2204.158225,0.22752
2207.913183,0.2284
2211.680953,0.2294
2215.461603,0.22957
2219.255201,0.2295
2223.061813,0.22976
2226.881507,0.23025
2230.714349,0.23097
2234.560407,0.23201
2238.419756,0.2329
2242.292454,0.23331
2246.178575,0.23387
2250.07819,0.23474
2253.991369,0.2353
2257.918183,0.23581
2261.858702,0.23641
2265.813,0.23691
2269.781154,0.23757
2273.763225,0.2383
2277.759293,0.2388
2281.769432,0.23916
2285.793716,0.23966
2289.832221,0.24062
2293.88502,0.24163
2297.952192,0.24223
2302.033816,0.24288
2306.129961,0.24363
2310.240709,0.24414
2314.366139,0.24469
2318.506328,0.24552
2322.661356,0.2462
2326.831304,0.24637
2331.016252,0.24668
2335.216286,0.24755
2339.431477,0.24855
2343.661913,0.24935
2347.907677,0.24975
2352.168852,0.25003
2356.445521,0.25065
2360.737771,0.25136
2365.045686,0.25194
2369.369358,0.25263
2373.708861,0.25342
2378.06429,0.2538
2382.435731,0.25392
2386.823273,0.2546
2391.227005,0.2558
2395.647017,0.25677
2400.0834,0.25747
2404.53625,0.25817
2409.005647,0.25871
2413.491691,0.25913
2417.994473,0.25962
2422.514088,0.26015
2427.050631,0.26055
2431.604196,0.26091
2436.17488,0.26161
2440.762785,0.26253
2445.367997,0.26307
2449.99062,0.26325
2454.630753,0.26377
2459.288496,0.26469
2463.963948,0.26537
2468.657212,0.26568
2473.368389,0.26633
2478.097588,0.26728
2482.844901,0.26765
2487.610438,0.26771
2492.394303,0.26819
2497.196603,0.26879
2502.017445,0.26904
2506.856937,0.26921
2511.715186,0.26959
2516.592308,0.27009
2521.488402,0.27049
2526.403583,0.27025
2531.337964,0.26976
2536.291658,0.26987
2541.264778,0.26996
2546.257439,0.26978
2551.269756,0.27001
2556.301852,0.26952
2561.353831,0.26811
2566.425818,0.26816
2571.517932,0.26862
2576.630293,0.26805
2581.763021,0.26734
2586.91624,0.26706
2592.090072,0.26691
2597.284647,0.2673
2602.500077,0.26793
2607.736495,0.26867
2612.994027,0.26913
2618.272802,0.26924
2623.572949,0.26978
2628.894597,0.27007
2634.237878,0.27233
2639.60293,0.27496
2644.989874,0.27533
2650.398851,0.27457
2655.829995,0.27343
2661.283444,0.27074
2666.759335,0.26674
2672.257807,0.26527
2677.779,0.26711
2683.323062,0.2699
2688.890121,0.27119
2694.480328,0.27111
2700.093828,0.271
2705.730766,0.2691
2711.39129,0.2657
2717.075548,0.26187
2722.783689,0.25855
2728.515871,0.25736
2734.272233,0.25329
2740.052934,0.24651
2745.85813,0.24271
2751.687977,0.23863
2757.542631,0.23278
2763.422252,0.22792
2769.327,0.22492
2775.257043,0.22343
2781.212529,0.22123
2787.19363,0.21876
2793.200512,0.21743
2799.233341,0.21538
2805.292287,0.2132
2811.377519,0.21262
2817.489208,0.21185
2823.627536,0.21073
2829.79266,0.20989
2835.984766,0.2093
2842.20403,0.20882
2848.450631,0.20782
2854.72475,0.20672
2861.02657,0.20623
2867.356274,0.20579
2873.714055,0.20526
2880.100086,0.20494
2886.514561,0.2046
2892.957673,0.20423
2899.429613,0.20373
2905.930575,0.20314
2912.460755,0.2028
2919.020351,0.2025
2925.609569,0.20218
2932.228594,0.20206
2938.877637,0.20191
2945.556904,0.20173
2952.266599,0.2018
2959.006933,0.2019
2965.778115,0.2015
2972.580357,0.20092
2979.413883,0.20095
2986.278891,0.20152
2993.175608,0.202
3000.104254,0.20228
3007.065051,0.20251
3014.058225,0.20255
3021.084,0.20247
3028.142607,0.20267
3035.234283,0.20306
3042.359245,0.20325
3049.517737,0.20329
3056.709994,0.20341
3063.936258,0.20348
3071.196769,0.20395
3078.491772,0.20495
3085.821513,0.20564
3093.186251,0.20628
3100.586217,0.20711
3108.021674,0.20756
3115.492879,0.20798
3123.000089,0.20879
3130.543567,0.20976
3138.123574,0.21061
3145.740377,0.21125
3153.394256,0.21181
3161.08546,0.21248
3168.814274,0.2132
3176.580974,0.21396
3184.38584,0.21475
3192.229154,0.21542
3200.1112,0.21615
3208.032266,0.21708
3215.992653,0.21805
3223.992633,0.21895
3232.032514,0.21971
3240.112594,0.22025
3248.233176,0.22082
3256.394564,0.22168
3264.597068,0.22261
3272.840999,0.22337
3281.126681,0.22412
3289.454413,0.22486
3297.824524,0.22566
3306.237341,0.22649
3314.693189,0.22702
3323.192401,0.22716
3331.735311,0.2269
3340.322256,0.22628
3348.95359,0.22577
3357.629634,0.22579
3366.350748,0.22608
3375.117285,0.22648
3383.929601,0.22708
3392.788054,0.22723
3401.693008,0.22675
3410.64483,0.22628
3419.643903,0.22659
3428.690579,0.22792
3437.785247,0.22951
3446.928291,0.23037
3456.120099,0.23063
3465.36106,0.23058
3474.651571,0.23011
3483.99203,0.23
3493.382855,0.23071
3502.824429,0.23206
3512.317177,0.23424
3521.861515,0.23678
3531.457866,0.23872
3541.106657,0.24012
3550.808317,0.24117
3560.563284,0.24186
3570.372009,0.2425
3580.234914,0.24331
3590.15246,0.24371
3600.125104,0.2437
3610.153306,0.24397
3620.237532,0.24443
3630.378252,0.24483
3640.575942,0.24518
3650.831097,0.24545
3661.144177,0.24559
3671.515689,0.24574
3681.946129,0.24593
3692.436003,0.24614
3702.985818,0.24642
3713.596091,0.24658
3724.267342,0.24642
3735.000113,0.24638
3745.79491,0.24664
3756.652285,0.24686
3767.572784,0.24678
3778.556959,0.2466
3789.605369,0.24639
3800.71858,0.24561
3811.897162,0.24428
3823.141709,0.243
3834.452778,0.24203
3845.830974,0.24122
3857.276898,0.24058
3868.791155,0.24016
3880.37436,0.23972
3892.027134,0.23915
3903.750106,0.23895
3915.543926,0.23867
3927.409209,0.23728
3939.346621,0.23469
3951.356822,0.23114
3963.44048,0.22773
3975.598271,0.22607
3987.830879,0.22692
4000.138997,0.22975
4012.523342,0.23328
4024.984593,0.23638
4037.523484,0.2386
4050.140742,0.23987
4062.837106,0.24037
4075.613322,0.24037
4088.470144,0.24026
4101.408338,0.24036
4114.428697,0.2404
4127.531971,0.24019
4140.718972,0.23988
4153.990505,0.23949
4167.347385,0.23903
4180.790439,0.23849
4194.320503,0.23699
4207.938425,0.23351
4221.64508,0.22929
4235.441304,0.22746
4249.327994,0.22854
4263.306045,0.22898
4277.376359,0.22788
4291.539855,0.22771
4305.79746,0.22911
4320.150116,0.23091
4334.598795,0.23211
4349.144426,0.23258
4363.788008,0.23261
4378.530532,0.23235
4393.373006,0.23189
4408.316449,0.23155
4423.361896,0.23143
4438.510393,0.23123
4453.763023,0.23095
4469.120824,0.23086
4484.584908,0.23065
4500.15638,0.2301
4515.836365,0.22942
4531.626,0.22859
4547.52644,0.22772
4563.538854,0.22679
4579.664452,0.22561
4595.904394,0.22439
4612.259923,0.22301
4628.732277,0.22098
4645.322713,0.21859
4662.032504,0.2166
4678.862943,0.21478
4695.815342,0.21277
4712.891054,0.21063
4730.091384,0.20851
4747.417723,0.20652
4764.871462,0.20486
4782.45401,0.20346
4800.1668,0.20179
4818.011283,0.19982
4835.988934,0.19785
4854.101273,0.19599
4872.349771,0.19428
4890.735994,0.19261
4909.261506,0.1912
4927.927896,0.19006
4946.736778,0.18877
4965.68979,0.18738
4984.788594,0.186
5004.034903,0.18451
5023.430384,0.18312
5042.976803,0.18177
5062.675928,0.18025
5082.529556,0.17878
5102.539511,0.1773
5122.707649,0.17572
5143.03585,0.17439
5163.526056,0.17357
5184.180157,0.17264
5205.000154,0.1716
5225.988055,0.17142
5247.145898,0.17191
5268.475756,0.17227
5289.979735,0.17269
5311.659976,0.17372
5333.518684,0.1746
5355.558014,0.17518
5377.780242,0.17595
5400.187657,0.17584
5422.78258,0.1751
5445.567377,0.17519
5468.544451,0.17586
5491.716246,0.17674
5515.085278,0.1765
5538.654014,0.17368
5562.425058,0.16994
5586.401024,0.16876
5610.584574,0.16937
5634.978416,0.16907
5659.585305,0.16863
5684.408043,0.16825
5709.449517,0.16694
5734.712564,0.16533
5760.200171,0.16431
5785.915346,0.16408
5811.861151,0.16311
5838.040701,0.16132
5864.457171,0.15883
5891.11379,0.15583
5918.013883,0.15359
5945.160732,0.15145
5972.557781,0.15003
6000.208507,0.14967
6028.116449,0.14879
6056.285213,0.14757
6084.718472,0.14826
6113.41997,0.14981
6142.393557,0.15096
6171.643046,0.15192
6201.172433,0.15328
6230.985758,0.15473
6261.087133,0.15559
6291.480755,0.15603
6322.1709,0.15594
6353.161929,0.15557
6384.458328,0.15494
6416.064553,0.15393
6447.985267,0.15314
6480.225188,0.15154
6512.789128,0.15022
6545.681997,0.14946
6578.908804,0.1483
6612.47466,0.14804
6646.384825,0.14899
6680.644535,0.15033
6715.259268,0.15128
6750.234571,0.15148
6785.576107,0.15085
6821.28966,0.15011
6857.381134,0.14946
6893.856559,0.14988
6930.722144,0.15057
6967.984085,0.15071
7005.648858,0.15099
7043.72303,0.15131
7082.213314,0.15138
7121.126567,0.15057
7160.469802,0.14965
7200.250183,0.15013
7240.47509,0.15115
7281.15191,0.15168
7322.288355,0.15192
7363.892259,0.15207
7405.971636,0.15166
7448.534685,0.15048
7491.589791,0.14913
7535.145539,0.14785
7579.210768,0.14652
7623.794353,0.14538
7668.905555,0.14436
7714.553795,0.14306
7760.74872,0.14144
7807.500211,0.13973
7854.818386,0.13804
7902.713612,0.1364
7951.196573,0.13513
8000.278026,0.13431
8049.969186,0.13363
8100.281485,0.13306
8151.226643,0.13274
8202.816677,0.13263
8255.063908,0.1327
8307.980976,0.13303
8361.580914,0.13339
8415.876885,0.13373
8470.882607,0.13432
8526.612089,0.13511
8583.07971,0.13605
8640.300232,0.13718
8698.288814,0.13851
8757.061026,0.14026
8816.632938,0.14321
8877.020825,0.14788
8938.241648,0.15403
9000.312761,0.16016
9063.252001,0.16438
9127.077709,0.16596
9191.808745,0.16565
9257.464511,0.16461
9324.065051,0.1634
9391.630729,0.16238
9460.182767,0.16194
9529.742923,0.16149
9600.3336,0.16018
9671.977869,0.15819
9744.699495,0.15612
9818.522964,0.15396
9893.473606,0.15181
9969.577237,0.1508
10046.86077,0.15113
10125.35186,0.15189
10205.07902,0.15265
10286.0717,0.15334
10368.36026,0.15401
10451.97605,0.15398
10536.95157,0.15309
10623.32001,0.15235
10711.11603,0.15192
10800.37531,0.15071
10891.13475,0.14846
10983.43249,0.14756
11077.30797,0.15057
11172.80199,0.1555
11269.9569,0.15859
11368.81615,0.15867
11469.42513,0.15604
11571.83069,0.15189
11676.0814,0.14839
11782.22758,0.14652
11890.32139,0.14504
12000.41694,0.14251
12112.5705,0.14008
12226.84001,0.1394
12343.28609,0.1388
12461.97152,0.13738
12582.96151,0.13605
12706.32386,0.13547
12832.12902,0.13515
12960.45029,0.13441
13091.36408,0.13377
13224.94941,0.13339
13361.28907,0.13297
13500.46914,0.13295
13642.57932,0.13326
13787.71312,0.13331
13935.96807,0.13302
14087.44596,0.1321
14242.25324,0.13061
14400.50047,0.12927
14562.30382,0.12828
14727.78452,0.12696
14897.06937,0.12499
15070.29108,0.12307
15247.58859,0.12248
15429.10747,0.12352
15615.00054,0.12446
15805.42735,0.12388
16000.55605,0.12281
16200.56297,0.12335
16405.63335,0.12677
16615.96195,0.13216
16831.75363,0.13711
17053.22403,0.14044
17280.60061,0.14341
17514.12221,0.14716
17754.04165,0.15067
18000.62552,0.15376
18254.15542,0.15787
18514.92902,0.16129
18783.26128,0.16257
19059.48566,0.16586
19343.95592,0.17209
19637.04612,0.17254
19939.15447,0.16634
20250.70371,0.16356
20572.1434,0.16264
20903.95211,0.16205
21246.63979,0.1648
21600.75039,0.16159
21966.86522,0.15329
22345.60422,0.1483
22737.6323,0.14369
23143.66139,0.14262
23564.45516,0.14685
24000.83388,0.14438
24453.67973,0.12921
24923.94272,0.12364
25412.64804,0.13156
