Database of Origin,University of Winnipeg Spectrophotometer Facility
Sample Description,16.11. Meteorites - HEDs 16.11.3. NASA samples (4) Bruker Vertex 70 FTIR spectrometer
Other Information,MIR Glowbar KBr Beam Splitter MCT cryo cooled Dectect.
Date Added,2018-07-23 23:49:06.326897

Data ID,FTIR_MET2_6_53      
Sample ID,Tatahouine
Mineral Name,Diogenite
Grain Size,90-250 um
Viewing Geometry,i30/ e0
Resolution,7.71cm-1

Wavelength
1672.316177,0.08668
1674.476792,0.0853
1676.642997,0.08425
1678.814814,0.08359
1680.992268,0.08313
1683.175374,0.08274
1685.364158,0.08198
1687.558643,0.08115
1689.758849,0.08093
1691.9648,0.0807
1694.176519,0.08017
1696.394027,0.07949
1698.61735,0.07844
1700.846507,0.07778
1703.081521,0.07816
1705.322418,0.07806
1707.569219,0.07643
1709.821949,0.07455
1712.08063,0.07388
1714.345286,0.07308
1716.615945,0.07112
1718.892624,0.0697
1721.175349,0.06945
1723.464146,0.06919
1725.759038,0.06893
1728.060049,0.06936
1730.367205,0.06964
1732.68053,0.06889
1735.000051,0.06811
1737.325788,0.06745
1739.657769,0.0663
1741.996018,0.06519
1744.340562,0.06483
1746.691425,0.06494
1749.048633,0.06482
1751.412211,0.06425
1753.78219,0.06334
1756.158588,0.0622
1758.541435,0.06132
1760.930758,0.06106
1763.326581,0.06056
1765.728933,0.05984
1768.13784,0.06007
1770.553328,0.06044
1772.975429,0.05964
1775.404162,0.05845
1777.839558,0.05778
1780.281645,0.0577
1782.73045,0.05792
1785.186001,0.05772
1787.648326,0.05724
1790.117454,0.05653
1792.593414,0.05539
1795.07623,0.05463
1797.565933,0.05456
1800.062552,0.05439
1802.566116,0.05406
1805.076653,0.05398
1807.594193,0.05367
1810.118766,0.05315
1812.650403,0.05253
1815.189129,0.05202
1817.734976,0.05191
1820.287974,0.05186
1822.848154,0.05218
1825.415545,0.05306
1827.990179,0.05337
1830.572085,0.05251
1833.161299,0.05147
1835.757844,0.05087
1838.361756,0.0505
1840.973065,0.05036
1843.591803,0.05042
1846.218001,0.05056
1848.851693,0.05079
1851.492909,0.0506
1854.141686,0.04999
1856.798049,0.04977
1859.462034,0.04969
1862.133675,0.04938
1864.813003,0.04908
1867.500053,0.04877
1870.194858,0.04869
1872.897451,0.04861
1875.60787,0.04833
1878.326142,0.04837
1881.052305,0.0487
1883.786392,0.04874
1886.528439,0.04788
1889.27848,0.04693
1892.03655,0.04721
1894.802685,0.04797
1897.576923,0.04837
1900.359294,0.04876
1903.149835,0.0487
1905.948585,0.04815
1908.755578,0.04741
1911.570851,0.04658
1914.394441,0.04631
1917.226385,0.04649
1920.066724,0.04654
1922.915487,0.04649
1925.772716,0.04636
1928.638449,0.04653
1931.512723,0.04689
1934.395578,0.04662
1937.28705,0.04622
1940.18718,0.04652
1943.09601,0.04717
1946.013571,0.04754
1948.939907,0.04756
1951.875057,0.04759
1954.819061,0.04786
1957.771959,0.04785
1960.733792,0.04743
1963.7046,0.04739
1966.684429,0.04764
1969.67331,0.04751
1972.671291,0.04751
1975.678411,0.048
1978.694713,0.04863
1981.72024,0.04909
1984.755033,0.04909
1987.799135,0.04882
1990.852594,0.0489
1993.915443,0.04938
1996.987732,0.04975
2000.069502,0.05006
2003.160799,0.05041
2006.261667,0.05044
2009.37215,0.05024
2012.492292,0.05036
2015.622144,0.05102
2018.761742,0.05154
2021.911136,0.05167
2025.070371,0.05194
2028.239495,0.05227
2031.418553,0.05266
2034.607593,0.05337
2037.806661,0.05395
2041.015809,0.05428
2044.235076,0.05472
2047.464515,0.05537
2050.704173,0.05599
2053.9541,0.05651
2057.214344,0.05719
2060.484955,0.05779
2063.765981,0.05838
2067.057478,0.05905
2070.359486,0.05978
2073.672061,0.0604
2076.995253,0.06078
2080.329113,0.06141
2083.673693,0.06225
2087.029044,0.06288
2090.39522,0.06341
2093.772276,0.06437
2097.160256,0.06585
2100.559219,0.06694
2103.969217,0.0672
2107.390304,0.06743
2110.822536,0.06799
2114.265965,0.06883
2117.720647,0.06975
2121.186643,0.07059
2124.663997,0.07162
2128.152772,0.07276
2131.653022,0.07373
2135.164806,0.07464
2138.68818,0.07579
2142.223201,0.07713
2145.769927,0.07846
2149.328422,0.07972
2152.898735,0.08069
2156.480928,0.08167
2160.075063,0.08297
2163.681197,0.0844
2167.299393,0.08551
2170.929709,0.08629
2174.572208,0.08749
2178.226956,0.08907
2181.894004,0.09039
2185.57342,0.09138
2189.265266,0.0926
2192.969606,0.09421
2196.686503,0.09566
2200.416021,0.09709
2204.158225,0.09857
2207.913183,0.09989
2211.680953,0.10145
2215.461603,0.10311
2219.255201,0.10448
2223.061813,0.10593
2226.881507,0.1074
2230.714349,0.10864
2234.560407,0.10998
2238.419756,0.11149
2242.292454,0.11316
2246.178575,0.11489
2250.07819,0.11635
2253.991369,0.11745
2257.918183,0.11862
2261.858702,0.12019
2265.813,0.1217
2269.781154,0.12308
2273.763225,0.12496
2277.759293,0.12728
2281.769432,0.12928
2285.793716,0.13084
2289.832221,0.13237
2293.88502,0.1343
2297.952192,0.13629
2302.033816,0.13785
2306.129961,0.13905
2310.240709,0.1401
2314.366139,0.14138
2318.506328,0.14283
2322.661356,0.14427
2326.831304,0.14605
2331.016252,0.14789
2335.216286,0.14943
2339.431477,0.15097
2343.661913,0.15264
2347.907677,0.15415
2352.168852,0.15528
2356.445521,0.15648
2360.737771,0.15812
2365.045686,0.1598
2369.369358,0.16133
2373.708861,0.16296
2378.06429,0.16472
2382.435731,0.16647
2386.823273,0.16795
2391.227005,0.16917
2395.647017,0.17036
2400.0834,0.17155
2404.53625,0.17294
2409.005647,0.1744
2413.491691,0.17563
2417.994473,0.17683
2422.514088,0.17817
2427.050631,0.17952
2431.604196,0.18072
2436.17488,0.18179
2440.762785,0.18305
2445.367997,0.18465
2449.99062,0.18605
2454.630753,0.18704
2459.288496,0.18794
2463.963948,0.18867
2468.657212,0.18942
2473.368389,0.19069
2478.097588,0.19228
2482.844901,0.19384
2487.610438,0.19488
2492.394303,0.19537
2497.196603,0.19591
2502.017445,0.19648
2506.856937,0.19708
2511.715186,0.19783
2516.592308,0.19859
2521.488402,0.19934
2526.403583,0.19994
2531.337964,0.2006
2536.291658,0.20132
2541.264778,0.20187
2546.257439,0.20249
2551.269756,0.20316
2556.301852,0.20346
2561.353831,0.2036
2566.425818,0.20417
2571.517932,0.20471
2576.630293,0.20486
2581.763021,0.20492
2586.91624,0.20506
2592.090072,0.20523
2597.284647,0.20575
2602.500077,0.20621
2607.736495,0.20626
2612.994027,0.20642
2618.272802,0.2068
2623.572949,0.20693
2628.894597,0.2067
2634.237878,0.20682
2639.60293,0.20718
2644.989874,0.20733
2650.398851,0.20762
2655.829995,0.20813
2661.283444,0.20832
2666.759335,0.20835
2672.257807,0.20858
2677.779,0.2087
2683.323062,0.20871
2688.890121,0.20857
2694.480328,0.20834
2700.093828,0.20796
2705.730766,0.20742
2711.39129,0.20701
2717.075548,0.20658
2722.783689,0.20625
2728.515871,0.20618
2734.272233,0.20569
2740.052934,0.20473
2745.85813,0.20389
2751.687977,0.20302
2757.542631,0.20198
2763.422252,0.20106
2769.327,0.20046
2775.257043,0.20015
2781.212529,0.19959
2787.19363,0.19901
2793.200512,0.19882
2799.233341,0.1984
2805.292287,0.19767
2811.377519,0.19693
2817.489208,0.19596
2823.627536,0.1951
2829.79266,0.19448
2835.984766,0.19367
2842.20403,0.19282
2848.450631,0.19222
2854.72475,0.19171
2861.02657,0.19076
2867.356274,0.18949
2873.714055,0.18878
2880.100086,0.18856
2886.514561,0.18837
2892.957673,0.188
2899.429613,0.18746
2905.930575,0.18694
2912.460755,0.18621
2919.020351,0.1853
2925.609569,0.18456
2932.228594,0.18396
2938.877637,0.18337
2945.556904,0.18282
2952.266599,0.18229
2959.006933,0.18175
2965.778115,0.18118
2972.580357,0.18051
2979.413883,0.17984
2986.278891,0.17929
2993.175608,0.17897
3000.104254,0.17878
3007.065051,0.17831
3014.058225,0.17765
3021.084,0.17701
3028.142607,0.17651
3035.234283,0.17607
3042.359245,0.17552
3049.517737,0.17482
3056.709994,0.17431
3063.936258,0.17366
3071.196769,0.17277
3078.491772,0.17237
3085.821513,0.17228
3093.186251,0.1721
3100.586217,0.17168
3108.021674,0.17095
3115.492879,0.17032
3123.000089,0.16984
3130.543567,0.16948
3138.123574,0.16928
3145.740377,0.16882
3153.394256,0.16798
3161.08546,0.16729
3168.814274,0.16685
3176.580974,0.16641
3184.38584,0.16595
3192.229154,0.16558
3200.1112,0.16517
3208.032266,0.16472
3215.992653,0.16425
3223.992633,0.16353
3232.032514,0.16283
3240.112594,0.16248
3248.233176,0.16225
3256.394564,0.16178
3264.597068,0.1611
3272.840999,0.16054
3281.126681,0.16012
3289.454413,0.15955
3297.824524,0.15903
3306.237341,0.1587
3314.693189,0.15822
3323.192401,0.15763
3331.735311,0.15691
3340.322256,0.15591
3348.95359,0.1552
3357.629634,0.155
3366.350748,0.15469
3375.117285,0.15423
3383.929601,0.1536
3392.788054,0.15262
3401.693008,0.15146
3410.64483,0.15043
3419.643903,0.14991
3428.690579,0.14991
3437.785247,0.14989
3446.928291,0.14988
3456.120099,0.14977
3465.36106,0.14931
3474.651571,0.14879
3483.99203,0.14816
3493.382855,0.14747
3502.824429,0.14702
3512.317177,0.14685
3521.861515,0.14658
3531.457866,0.14619
3541.106657,0.14582
3550.808317,0.14535
3560.563284,0.14481
3570.372009,0.14429
3580.234914,0.14384
3590.15246,0.1435
3600.125104,0.14317
3610.153306,0.1427
3620.237532,0.14213
3630.378252,0.1417
3640.575942,0.14104
3650.831097,0.14007
3661.144177,0.13922
3671.515689,0.13866
3681.946129,0.1383
3692.436003,0.13795
3702.985818,0.13756
3713.596091,0.13714
3724.267342,0.13669
3735.000113,0.1363
3745.79491,0.13599
3756.652285,0.13548
3767.572784,0.13475
3778.556959,0.13401
3789.605369,0.13339
3800.71858,0.13298
3811.897162,0.13255
3823.141709,0.13186
3834.452778,0.13112
3845.830974,0.1306
3857.276898,0.13022
3868.791155,0.12974
3880.37436,0.12923
3892.027134,0.12879
3903.750106,0.12823
3915.543926,0.12755
3927.409209,0.12682
3939.346621,0.12618
3951.356822,0.12561
3963.44048,0.12503
3975.598271,0.12458
3987.830879,0.12402
4000.138997,0.12339
4012.523342,0.12275
4024.984593,0.122
4037.523484,0.12145
4050.140742,0.12122
4062.837106,0.12068
4075.613322,0.11972
4088.470144,0.11897
4101.408338,0.11836
4114.428697,0.1177
4127.531971,0.11719
4140.718972,0.11668
4153.990505,0.11599
4167.347385,0.11531
4180.790439,0.11464
4194.320503,0.11363
4207.938425,0.11196
4221.64508,0.10992
4235.441304,0.10878
4249.327994,0.10875
4263.306045,0.10844
4277.376359,0.10762
4291.539855,0.10715
4305.79746,0.10723
4320.150116,0.10754
4334.598795,0.1078
4349.144426,0.10764
4363.788008,0.10728
4378.530532,0.10713
4393.373006,0.10706
4408.316449,0.1067
4423.361896,0.10626
4438.510393,0.10603
4453.763023,0.10568
4469.120824,0.10502
4484.584908,0.10425
4500.15638,0.10334
4515.836365,0.10229
4531.626,0.10118
4547.52644,0.09985
4563.538854,0.09813
4579.664452,0.09564
4595.904394,0.09244
4612.259923,0.08895
4628.732277,0.08522
4645.322713,0.08137
4662.032504,0.0777
4678.862943,0.07439
4695.815342,0.07155
4712.891054,0.06926
4730.091384,0.06701
4747.417723,0.06484
4764.871462,0.0632
4782.45401,0.06141
4800.1668,0.05888
4818.011283,0.05626
4835.988934,0.05451
4854.101273,0.05345
4872.349771,0.05257
4890.735994,0.05189
4909.261506,0.05124
4927.927896,0.05067
4946.736778,0.05011
4965.68979,0.0495
4984.788594,0.04903
5004.034903,0.0484
5023.430384,0.04738
5042.976803,0.04606
5062.675928,0.04445
5082.529556,0.04277
5102.539511,0.04132
5122.707649,0.04015
5143.03585,0.03917
5163.526056,0.03868
5184.180157,0.0392
5205.000154,0.04049
5225.988055,0.04198
5247.145898,0.0435
5268.475756,0.04508
5289.979735,0.04693
5311.659976,0.04888
5333.518684,0.0502
5355.558014,0.05058
5377.780242,0.05021
5400.187657,0.04957
5422.78258,0.04915
5445.567377,0.04936
5468.544451,0.05015
5491.716246,0.05088
5515.085278,0.05085
5538.654014,0.05003
5562.425058,0.04857
5586.401024,0.04675
5610.584574,0.04533
5634.978416,0.04444
5659.585305,0.04383
5684.408043,0.04348
5709.449517,0.04333
5734.712564,0.04298
5760.200171,0.04247
5785.915346,0.04228
5811.861151,0.04252
5838.040701,0.0427
5864.457171,0.04227
5891.11379,0.04097
5918.013883,0.0393
5945.160732,0.03726
5972.557781,0.03512
6000.208507,0.03396
6028.116449,0.03369
6056.285213,0.03359
6084.718472,0.03344
6113.41997,0.03307
6142.393557,0.03237
6171.643046,0.03148
6201.172433,0.0308
6230.985758,0.03061
6261.087133,0.03052
6291.480755,0.03057
6322.1709,0.0315
6353.161929,0.03321
6384.458328,0.03446
6416.064553,0.03523
6447.985267,0.036
6480.225188,0.03648
6512.789128,0.03643
6545.681997,0.03598
6578.908804,0.03527
6612.47466,0.03473
6646.384825,0.03469
6680.644535,0.03493
6715.259268,0.03502
6750.234571,0.03477
6785.576107,0.03422
6821.28966,0.03355
6857.381134,0.03302
6893.856559,0.03264
6930.722144,0.03212
6967.984085,0.03156
7005.648858,0.03141
7043.72303,0.03147
7082.213314,0.0312
7121.126567,0.03065
7160.469802,0.02994
7200.250183,0.02918
7240.47509,0.0283
7281.15191,0.0272
7322.288355,0.02603
7363.892259,0.02495
7405.971636,0.02414
7448.534685,0.02371
7491.589791,0.02327
7535.145539,0.02249
7579.210768,0.02168
7623.794353,0.02101
7668.905555,0.02025
7714.553795,0.01952
7760.74872,0.01894
7807.500211,0.0182
7854.818386,0.01744
7902.713612,0.01688
7951.196573,0.01638
8000.278026,0.01592
8049.969186,0.01549
8100.281485,0.01495
8151.226643,0.01445
8202.816677,0.01413
8255.063908,0.01386
8307.980976,0.01345
8361.580914,0.01297
8415.876885,0.0128
8470.882607,0.01315
8526.612089,0.0141
8583.07971,0.01624
8640.300232,0.0207
8698.288814,0.02849
8757.061026,0.03951
8816.632938,0.05447
8877.020825,0.07292
8938.241648,0.09213
9000.312761,0.11059
9063.252001,0.12379
9127.077709,0.12861
9191.808745,0.12829
9257.464511,0.1263
9324.065051,0.12475
9391.630729,0.1249
9460.182767,0.12525
9529.742923,0.12108
9600.3336,0.1092
9671.977869,0.0927
9744.699495,0.07777
9818.522964,0.06986
9893.473606,0.07172
9969.577237,0.07985
10046.86077,0.08943
10125.35186,0.10055
10205.07902,0.11138
10286.0717,0.11497
10368.36026,0.11182
10451.97605,0.10871
10536.95157,0.10528
10623.32001,0.1009
10711.11603,0.09688
10800.37531,0.08895
10891.13475,0.07594
10983.43249,0.06618
11077.30797,0.06784
11172.80199,0.08126
11269.9569,0.09591
11368.81615,0.10019
11469.42513,0.09526
11571.83069,0.08696
11676.0814,0.07745
11782.22758,0.06828
11890.32139,0.06103
12000.41694,0.05572
12112.5705,0.05142
12226.84001,0.0477
12343.28609,0.04477
12461.97152,0.04263
12582.96151,0.0408
12706.32386,0.03906
12832.12902,0.03739
12960.45029,0.03565
13091.36408,0.03398
13224.94941,0.03228
13361.28907,0.03058
13500.46914,0.02952
13642.57932,0.02986
13787.71312,0.03085
13935.96807,0.03028
14087.44596,0.0283
14242.25324,0.02742
14400.50047,0.02925
14562.30382,0.03087
14727.78452,0.02863
14897.06937,0.02422
15070.29108,0.0213
15247.58859,0.02306
15429.10747,0.0282
15615.00054,0.03
15805.42735,0.02775
16000.55605,0.02868
16200.56297,0.03878
16405.63335,0.05821
16615.96195,0.07873
16831.75363,0.09137
17053.22403,0.0973
17280.60061,0.10369
17514.12221,0.11043
17754.04165,0.11397
18000.62552,0.11783
18254.15542,0.12254
18514.92902,0.12325
18783.26128,0.12315
19059.48566,0.13364
19343.95592,0.15275
19637.04612,0.16007
19939.15447,0.1514
20250.70371,0.13857
20572.1434,0.12074
20903.95211,0.09684
21246.63979,0.07983
21600.75039,0.08086
21966.86522,0.09313
22345.60422,0.10193
22737.6323,0.09718
23143.66139,0.08379
23564.45516,0.07654
24000.83388,0.0784
24453.67973,0.08384
24923.94272,0.09881
25412.64804,0.13935
