Database of Origin,University of Winnipeg Spectrophotometer Facility
Sample Description,Carbonates and Oxolates -  D&P Spectra Reflectance spectra
Other Information,"Designs and Prototypes 102F spectra/Relative to infragold 1"" disk/Reflectance only"
Date Added,2018-08-06 21:06:09.454952

Data ID,FTIR_CARB_39_1      
Sample ID,CRB105
Mineral Name,huntite
Locality,Currant Creek/ Nevada/ USA
Grain Size,<45 um
Viewing Geometry,i=35/ e=0
Resolution,~3 cm-1
Formula,Mg3Ca(CO3)4
Composition,Huntite plus a few very minor peaks.

Wavelength
2.001142,0.67270188
2.002307,0.67242071
2.003474,0.67316778
2.004643,0.67314472
2.005812,0.67420444
2.006983,0.67376223
2.008155,0.67348015
2.009329,0.67293767
2.010504,0.67566865
2.01168,0.67415837
2.012858,0.67684138
2.014037,0.67573168
2.015217,0.67565221
2.016399,0.6758107
2.017582,0.67713995
2.018766,0.67694894
2.019952,0.67706567
2.021139,0.67722974
2.022328,0.67786129
2.023518,0.67814063
2.024709,0.67926319
2.025902,0.6778754
2.027096,0.67910817
2.028291,0.67810035
2.029488,0.68064357
2.030686,0.67878353
2.031886,0.68038507
2.033087,0.67993104
2.034289,0.67987883
2.035493,0.68019146
2.036698,0.68140268
2.037905,0.68105114
2.039113,0.68209513
2.040322,0.68151754
2.041533,0.68297975
2.042746,0.68231223
2.043959,0.68326803
2.045174,0.68285231
2.046391,0.68398506
2.047609,0.68293786
2.048828,0.68361378
2.050049,0.68311987
2.051271,0.68418717
2.052495,0.68300139
2.05372,0.68482972
2.054947,0.68365023
2.056175,0.68459966
2.057404,0.6844946
2.058635,0.68551156
2.059867,0.68552019
2.061101,0.68507038
2.062336,0.68483544
2.063573,0.68571793
2.064811,0.68560726
2.066051,0.68641536
2.067292,0.68546716
2.068534,0.68583886
2.069778,0.6856887
2.071024,0.68612518
2.072271,0.68560581
2.073519,0.68618117
2.074769,0.68573154
2.07602,0.68656015
2.077273,0.685909
2.078528,0.68598429
2.079784,0.68517288
2.081041,0.68613357
2.0823,0.68596435
2.08356,0.68632625
2.084822,0.68610192
2.086085,0.68611346
2.08735,0.68562332
2.088617,0.68625683
2.089885,0.6862008
2.091154,0.68622006
2.092425,0.68678832
2.093697,0.68747229
2.094971,0.68660571
2.096247,0.68695933
2.097524,0.6870093
2.098803,0.68859066
2.100083,0.6885592
2.101364,0.69021292
2.102648,0.68955864
2.103932,0.68923934
2.105219,0.68996691
2.106506,0.68985766
2.107796,0.69069768
2.109087,0.69089873
2.110379,0.69085817
2.111673,0.69174725
2.112969,0.69111347
2.114266,0.69133911
2.115565,0.6920141
2.116865,0.69217888
2.118167,0.6906961
2.119471,0.69162149
2.120776,0.69089353
2.122082,0.69124907
2.123391,0.69122371
2.1247,0.69106643
2.126012,0.69130962
2.127325,0.69117292
2.12864,0.69073637
2.129956,0.69178918
2.131274,0.69181854
2.132593,0.69288901
2.133914,0.6924858
2.135237,0.69291832
2.136561,0.69254805
2.137887,0.69376708
2.139214,0.69235304
2.140544,0.69378381
2.141874,0.69323165
2.143207,0.6941244
2.144541,0.6932354
2.145876,0.69349442
2.147214,0.69386132
2.148553,0.69412808
2.149893,0.69352159
2.151235,0.69377785
2.152579,0.69470022
2.153925,0.69482443
2.155272,0.69420371
2.156621,0.69476697
2.157972,0.69478274
2.159324,0.69499826
2.160678,0.69432601
2.162033,0.69407333
2.16339,0.69401832
2.164749,0.69330678
2.16611,0.69380322
2.167472,0.69477338
2.168836,0.69338447
2.170202,0.69323285
2.171569,0.69333939
2.172938,0.69298072
2.174309,0.69254309
2.175682,0.69287411
2.177056,0.69205441
2.178432,0.69190848
2.179809,0.69172523
2.181189,0.6922274
2.18257,0.69258968
2.183952,0.69087391
2.185337,0.69120608
2.186723,0.6909593
2.188111,0.69095347
2.189501,0.69110111
2.190892,0.69177598
2.192285,0.69193923
2.19368,0.69215069
2.195077,0.69091531
2.196476,0.69035226
2.197876,0.69086221
2.199278,0.69037807
2.200682,0.69065742
2.202087,0.69026926
2.203494,0.68952027
2.204903,0.69064545
2.206314,0.6902456
2.207727,0.68972853
2.209141,0.69108596
2.210557,0.68946885
2.211975,0.68882009
2.213395,0.68757378
2.214817,0.68777921
2.21624,0.68710687
2.217665,0.68667896
2.219092,0.68604933
2.220521,0.68409557
2.221952,0.68380577
2.223384,0.6835819
2.224818,0.68322307
2.226254,0.6836904
2.227692,0.68256432
2.229132,0.68219377
2.230574,0.68146119
2.232017,0.68116468
2.233462,0.67897324
2.23491,0.67897955
2.236359,0.67731003
2.237809,0.67836505
2.239262,0.6760345
2.240717,0.67598268
2.242173,0.67538654
2.243631,0.67401171
2.245092,0.67327169
2.246554,0.67307431
2.248017,0.67235135
2.249483,0.67013932
2.250951,0.66911203
2.252421,0.6698856
2.253892,0.66904927
2.255365,0.66859462
2.256841,0.66694044
2.258318,0.66754654
2.259797,0.66661442
2.261278,0.66511265
2.262761,0.66450169
2.264246,0.66343387
2.265732,0.66297475
2.267221,0.66207949
2.268712,0.66020923
2.270204,0.660598
2.271699,0.65902125
2.273195,0.65976593
2.274694,0.65848901
2.276194,0.65750518
2.277696,0.65581181
2.279201,0.65463252
2.280707,0.65456606
2.282215,0.65438104
2.283725,0.65408291
2.285237,0.65263641
2.286752,0.65040421
2.288268,0.64941604
2.289786,0.64812463
2.291306,0.64713539
2.292828,0.64665871
2.294352,0.64667735
2.295878,0.64559365
2.297406,0.64469303
2.298936,0.64403864
2.300468,0.64247845
2.302002,0.64088119
2.303539,0.63897588
2.305077,0.6383118
2.306617,0.6369019
2.308159,0.63356771
2.309703,0.63231185
2.31125,0.63063417
2.312798,0.62983235
2.314348,0.62824713
2.315901,0.62849111
2.317455,0.62760078
2.319012,0.62791997
2.320571,0.62898561
2.322131,0.62919696
2.323694,0.63077886
2.325259,0.63336515
2.326826,0.63498958
2.328395,0.6357217
2.329966,0.6371074
2.33154,0.63871015
2.333115,0.63793887
2.334692,0.63798217
2.336272,0.63852822
2.337854,0.63924551
2.339437,0.64114796
2.341023,0.64359209
2.342611,0.64586893
2.344201,0.6481127
2.345794,0.65043053
2.347388,0.65224518
2.348985,0.65482532
2.350583,0.65545692
2.352184,0.65680888
2.353787,0.65861972
2.355393,0.65908748
2.357,0.65868532
2.358609,0.65937975
2.360221,0.65858323
2.361835,0.65911384
2.363451,0.6589875
2.365069,0.65872824
2.36669,0.65745835
2.368312,0.65586218
2.369937,0.65527344
2.371564,0.65488281
2.373194,0.65320777
2.374825,0.65263398
2.376459,0.65088317
2.378095,0.64945455
2.379733,0.64788302
2.381373,0.6473715
2.383016,0.64690303
2.384661,0.64571528
2.386308,0.64636489
2.387957,0.64525924
2.389609,0.64534835
2.391263,0.64446539
2.392919,0.64390681
2.394577,0.64451221
2.396238,0.64435281
2.397901,0.64307741
2.399566,0.64336685
2.401233,0.6426458
2.402903,0.64289797
2.404575,0.6426536
2.40625,0.64306443
2.407926,0.64066256
2.409606,0.64069907
2.411287,0.64081702
2.412971,0.63956861
2.414657,0.63817662
2.416345,0.63696745
2.418036,0.63603426
2.419729,0.63473703
2.421424,0.63333361
2.423122,0.6314894
2.424822,0.63041225
2.426524,0.62974001
2.428229,0.62777428
2.429936,0.62731064
2.431646,0.62708372
2.433358,0.625975
2.435072,0.62505073
2.436789,0.62425829
2.438508,0.62357332
2.440229,0.62193753
2.441953,0.62082063
2.443679,0.62087783
2.445408,0.61939078
2.447139,0.61742242
2.448873,0.61761162
2.450609,0.61674992
2.452347,0.61555255
2.454088,0.61495414
2.455831,0.61311897
2.457577,0.61183783
2.459325,0.61176039
2.461076,0.610619
2.462829,0.60971017
2.464585,0.60966957
2.466343,0.60882631
2.468104,0.6080839
2.469867,0.60886733
2.471632,0.60738679
2.4734,0.60610216
2.475171,0.60503198
2.476944,0.60387213
2.47872,0.60321694
2.480498,0.60250119
2.482278,0.60171557
2.484062,0.60017064
2.485847,0.59880571
2.487636,0.59774312
2.489427,0.59689104
2.49122,0.59589277
2.493016,0.59404688
2.494814,0.59395915
2.496615,0.59291288
2.498419,0.59212617
2.500225,0.59141892
2.502034,0.59121547
2.503845,0.59118101
2.505659,0.59110911
2.507476,0.59176948
2.509295,0.59207902
2.511117,0.59217687
2.512942,0.59277594
2.514769,0.59373641
2.516598,0.59477307
2.518431,0.59590209
2.520266,0.59665403
2.522103,0.59826477
2.523944,0.60016735
2.525787,0.60119716
2.527632,0.60200584
2.52948,0.60488061
2.531331,0.6066352
2.533185,0.60853298
2.535041,0.61001983
2.5369,0.6113459
2.538762,0.61191343
2.540627,0.61375066
2.542494,0.61508127
2.544364,0.61630732
2.546236,0.61584748
2.548112,0.61733858
2.54999,0.61615002
2.55187,0.61836275
2.553754,0.61754258
2.55564,0.61702804
2.557529,0.6168396
2.559421,0.61882639
2.561316,0.62164974
2.563213,0.6226671
2.565113,0.61981229
2.567016,0.61917852
2.568922,0.62152323
2.570831,0.62099741
2.572742,0.62198812
2.574656,0.62242285
2.576573,0.62240694
2.578493,0.62212252
2.580416,0.62177167
2.582342,0.62480895
2.58427,0.62462446
2.586201,0.62426238
2.588135,0.62382356
2.590072,0.62287899
2.592012,0.62139943
2.593955,0.63010006
2.5959,0.62885639
2.597849,0.62131894
2.5998,0.62048146
2.601755,0.62195006
2.603712,0.62259236
2.605672,0.62584016
2.607635,0.62119793
2.609601,0.62006558
2.61157,0.61895318
2.613542,0.61856416
2.615517,0.61953759
2.617495,0.62177064
2.619475,0.61869008
2.621459,0.6189854
2.623446,0.61317043
2.625435,0.61583132
2.627428,0.6150104
2.629424,0.61550395
2.631423,0.61419723
2.633424,0.61209231
2.635429,0.60882017
2.637437,0.6067817
2.639447,0.60558422
2.641461,0.60526578
2.643478,0.60193637
2.645498,0.60209362
2.647521,0.59873217
2.649547,0.59507634
2.651576,0.5938303
2.653609,0.59376157
2.655644,0.58928395
2.657682,0.58610104
2.659724,0.58356468
2.661768,0.58169872
2.663816,0.57655125
2.665867,0.58309491
2.667921,0.57062925
2.669978,0.56868259
2.672038,0.5579992
2.674102,0.54284458
2.676168,0.53487943
2.678238,0.52196642
2.680311,0.49629033
2.682387,0.47368029
2.684467,0.44849507
2.686549,0.4202963
2.688635,0.38236216
2.690724,0.34555189
2.692816,0.31114399
2.694911,0.28540537
2.69701,0.2432922
2.699112,0.21531869
2.701217,0.19446964
2.703325,0.18358609
2.705437,0.17495518
2.707552,0.17910046
2.70967,0.18356742
2.711791,0.19406871
2.713916,0.18233038
2.716044,0.19054717
2.718175,0.19401769
2.72031,0.22498318
2.722448,0.21774265
2.724589,0.22556764
2.726734,0.21798937
2.728882,0.21323581
2.731034,0.21033877
2.733188,0.20795303
2.735347,0.20592387
2.737508,0.19971119
2.739673,0.2010932
2.741841,0.20253474
2.744013,0.1928567
2.746188,0.19413289
2.748367,0.19321307
2.750549,0.19658509
2.752734,0.1963882
2.754923,0.20185154
2.757115,0.19979594
2.759311,0.19911596
2.76151,0.19761984
2.763713,0.19921229
2.765919,0.19598687
2.768129,0.19601987
2.770342,0.19297154
2.772559,0.19374902
2.774779,0.19067342
2.777003,0.19044055
2.77923,0.18810348
2.781461,0.18736468
2.783696,0.18465705
2.785934,0.18444499
2.788175,0.182389
2.79042,0.18083278
2.792669,0.17825737
2.794922,0.17771903
2.797178,0.17554073
2.799437,0.17551886
2.8017,0.17210119
2.803967,0.17328326
2.806238,0.17006952
2.808512,0.17015133
2.810789,0.1675678
2.813071,0.16779055
2.815356,0.16545429
2.817645,0.16593813
2.819937,0.16302176
2.822233,0.16360021
2.824533,0.16108248
2.826837,0.16129406
2.829144,0.15892635
2.831455,0.15815653
2.83377,0.15671265
2.836089,0.15610747
2.838411,0.15371728
2.840737,0.15400299
2.843067,0.1510984
2.845401,0.15043136
2.847739,0.14802119
2.85008,0.147992
2.852425,0.14569789
2.854774,0.14658243
2.857127,0.14396461
2.859484,0.14407072
2.861844,0.14205678
2.864209,0.14235938
2.866577,0.13992706
2.868949,0.14026835
2.871325,0.13859716
2.873705,0.13748618
2.876089,0.13655269
2.878477,0.13676404
2.880869,0.1350222
2.883265,0.13493281
2.885664,0.1329402
2.888068,0.13336462
2.890476,0.13370246
2.892887,0.13203431
2.895303,0.12912537
2.897723,0.1300758
2.900146,0.12827292
2.902574,0.12766401
2.905006,0.12603545
2.907441,0.12693267
2.909881,0.1246329
2.912325,0.1256098
2.914773,0.12379996
2.917225,0.12490398
2.919681,0.12315724
2.922142,0.12352874
2.924606,0.12254466
2.927075,0.12097367
2.929547,0.12032189
2.932024,0.12050452
2.934505,0.11897042
2.93699,0.12017601
2.939479,0.11916615
2.941973,0.11878458
2.944471,0.11746416
2.946973,0.1190815
2.949479,0.11957864
2.951989,0.1159753
2.954504,0.11733557
2.957023,0.11830835
2.959546,0.11498508
2.962073,0.11523379
2.964605,0.11455136
2.967141,0.11567548
2.969681,0.11457011
2.972226,0.11444445
2.974775,0.11644968
2.977328,0.11808614
2.979886,0.11517587
2.982448,0.11628857
2.985015,0.11519543
2.987586,0.11604538
2.990161,0.11642555
2.99274,0.1179282
2.995324,0.11557649
2.997913,0.11729731
3.000506,0.11699247
3.003103,0.11868056
3.005705,0.11791758
3.008312,0.118249
3.010922,0.11818404
3.013538,0.11945525
3.016158,0.12005997
3.018782,0.1204454
3.021411,0.12000842
3.024044,0.12078002
3.026683,0.12093433
3.029325,0.12224421
3.031972,0.12506182
3.034624,0.12581277
3.037281,0.1227069
3.039942,0.12411438
3.042607,0.12410112
3.045278,0.12716043
3.047953,0.12508952
3.050632,0.12592904
3.053317,0.12555107
3.056006,0.12622761
3.0587,0.12684007
3.061398,0.12743019
3.064101,0.12863533
3.066809,0.12982906
3.069522,0.12755078
3.072239,0.12798798
3.074962,0.12787762
3.077689,0.12867756
3.080421,0.12913247
3.083157,0.12949206
3.085899,0.12958663
3.088645,0.13179456
3.091396,0.130029
3.094153,0.13088321
3.096914,0.13006052
3.099679,0.13192422
3.10245,0.13298914
3.105226,0.13104353
3.108007,0.13103937
3.110792,0.13168543
3.113583,0.13237007
3.116378,0.13262414
3.119179,0.13322368
3.121985,0.1338475
3.124795,0.13400745
3.127611,0.13464174
3.130431,0.1347989
3.133257,0.13646661
3.136088,0.13637361
3.138924,0.13774721
3.141765,0.13799817
3.144611,0.13972742
3.147462,0.13945697
3.150319,0.14056822
3.15318,0.14145482
3.156047,0.14253394
3.158919,0.14262776
3.161796,0.14337437
3.164678,0.14456108
3.167566,0.14534411
3.170458,0.145465
3.173356,0.14657848
3.17626,0.14664605
3.179168,0.14871961
3.182082,0.15152792
3.185001,0.14878923
3.187926,0.14888416
3.190856,0.14940421
3.193791,0.15132219
3.196731,0.1517282
3.199677,0.15085103
3.202629,0.15205234
3.205585,0.15251676
3.208548,0.15266583
3.211515,0.15346162
3.214488,0.15772547
3.217467,0.15909598
3.220451,0.15867822
3.223441,0.15615647
3.226436,0.15981228
3.229437,0.15871356
3.232443,0.16007042
3.235455,0.16049973
3.238472,0.16162438
3.241495,0.16131882
3.244523,0.16436365
3.247558,0.16356499
3.250598,0.16503496
3.253643,0.16471058
3.256694,0.16461569
3.259751,0.16103063
3.262814,0.15378311
3.265882,0.15008065
3.268956,0.14925347
3.272036,0.14904178
3.275122,0.14659905
3.278213,0.14705082
3.28131,0.14835242
3.284413,0.15029957
3.287522,0.15197829
3.290637,0.15207654
3.293757,0.15263307
3.296884,0.15505028
3.300016,0.1532382
3.303155,0.15127727
3.306299,0.15181429
3.309449,0.15038605
3.312605,0.14994584
3.315767,0.15020815
3.318936,0.15112813
3.32211,0.15155331
3.32529,0.15379711
3.328476,0.15645404
3.331669,0.15747627
3.334867,0.15472791
3.338072,0.15578033
3.341282,0.15537918
3.344499,0.15691952
3.347722,0.15693686
3.350952,0.15816426
3.354187,0.15737006
3.357429,0.15516706
3.360677,0.1545744
3.363931,0.1554955
3.367191,0.15592848
3.370458,0.1546779
3.373731,0.15573481
3.37701,0.15521197
3.380296,0.15550928
3.383588,0.15519995
3.386886,0.1553288
3.390191,0.15489184
3.393502,0.15446377
3.39682,0.15542384
3.400144,0.15369292
3.403475,0.15295036
3.406812,0.15195505
3.410156,0.14696512
3.413506,0.1434547
3.416862,0.14280491
3.420226,0.14259361
3.423596,0.14590462
3.426972,0.14669682
3.430355,0.14739557
3.433745,0.15050821
3.437141,0.15219115
3.440545,0.15556665
3.443954,0.16032887
3.447371,0.15940849
3.450794,0.16131908
3.454224,0.16527366
3.457661,0.1688714
3.461105,0.17275477
3.464556,0.17797384
3.468013,0.18128865
3.471477,0.18503295
3.474948,0.18949316
3.478426,0.19353927
3.481911,0.1986928
3.485403,0.20488208
3.488902,0.21240298
3.492408,0.22257582
3.495921,0.22621605
3.499441,0.23231131
3.502968,0.23829265
3.506502,0.24439917
3.510043,0.25082315
3.513592,0.25650257
3.517147,0.26250616
3.52071,0.26848276
3.52428,0.27399961
3.527857,0.27783155
3.531441,0.28339897
3.535032,0.29177887
3.538631,0.29527984
3.542237,0.29971875
3.545851,0.30325976
3.549471,0.30747813
3.553099,0.31116823
3.556735,0.3146074
3.560378,0.31725461
3.564028,0.32034443
3.567686,0.32353325
3.571351,0.32705591
3.575024,0.3284786
3.578704,0.33156515
3.582392,0.33373416
3.586088,0.33767627
3.589791,0.33914059
3.593501,0.34158968
3.59722,0.3443949
3.600946,0.34590062
3.604679,0.34710884
3.608421,0.34946581
3.61217,0.35125059
3.615926,0.35478528
3.619691,0.35541738
3.623463,0.3569489
3.627244,0.35840972
3.631032,0.35964052
3.634828,0.36063543
3.638632,0.36200281
3.642444,0.36291605
3.646263,0.3646373
3.650091,0.36530277
3.653927,0.36538508
3.657771,0.36364093
3.661623,0.36227528
3.665483,0.35866608
3.669351,0.35602905
3.673227,0.35046305
3.677111,0.34679757
3.681004,0.34366504
3.684905,0.34017257
3.688814,0.3383331
3.692731,0.33804751
3.696656,0.33927091
3.70059,0.3409028
3.704532,0.3430138
3.708483,0.34310107
3.712442,0.34335934
3.716409,0.34336855
3.720385,0.34144109
3.72437,0.33919528
3.728362,0.3362724
3.732364,0.33254795
3.736374,0.32711876
3.740392,0.32223755
3.744419,0.31764853
3.748455,0.31248813
3.752499,0.30660931
3.756553,0.30191826
3.760614,0.2959413
3.764685,0.29021713
3.768764,0.28406854
3.772853,0.27831551
3.77695,0.2717337
3.781056,0.26551023
3.78517,0.26050575
3.789294,0.25615011
3.793427,0.25294321
3.797568,0.24979709
3.801719,0.2493205
3.805879,0.24874487
3.810048,0.24839614
3.814225,0.24900021
3.818412,0.24982151
3.822609,0.25077018
3.826814,0.25102456
3.831029,0.24989324
3.835252,0.24821346
3.839486,0.24504395
3.843728,0.24048039
3.84798,0.23565235
3.852241,0.23153515
3.856512,0.22821717
3.860792,0.22410579
3.865081,0.22078947
3.86938,0.21854867
3.873689,0.21735929
3.878007,0.21701736
3.882334,0.21738219
3.886672,0.21625922
3.891019,0.21472557
3.895375,0.21258235
3.899742,0.21003624
3.904118,0.20548294
3.908504,0.20215179
3.9129,0.19927037
3.917305,0.19580283
3.921721,0.19343624
3.926146,0.19161021
3.930581,0.18958063
3.935027,0.18910986
3.939482,0.19131513
3.943948,0.19410943
3.948423,0.19809535
3.952909,0.20390868
3.957405,0.21155446
3.961911,0.22104577
3.966427,0.23341114
3.970954,0.24846552
3.975491,0.264523
3.980038,0.28240134
3.984595,0.29871604
3.989163,0.31324875
3.993742,0.32819712
3.99833,0.34217301
4.00293,0.35567996
4.00754,0.36877126
4.01216,0.38090966
4.016791,0.39316287
4.021433,0.40413585
4.026086,0.41512107
4.030749,0.42579342
4.035423,0.43517311
4.040108,0.44402115
4.044804,0.4526173
4.04951,0.45847951
4.054228,0.4657988
4.058956,0.47003018
4.063695,0.47545209
4.068446,0.4797736
4.073207,0.48447549
4.07798,0.48719035
4.082764,0.49099928
4.087559,0.49349163
4.092365,0.49752651
4.097183,0.49918184
4.102012,0.50198819
4.106852,0.50466259
4.111703,0.50668888
4.116566,0.50920428
4.121441,0.51157322
4.126327,0.51292683
4.131224,0.51514561
4.136133,0.51688631
4.141054,0.51928329
4.145987,0.52122849
4.150931,0.52388886
4.155887,0.52542316
4.160854,0.52751758
4.165834,0.52955808
4.170826,0.53173128
4.175829,0.53279107
4.180844,0.53569
4.185872,0.53679367
4.190911,0.5400076
4.195963,0.54373666
4.201026,0.55185265
4.206102,0.56264606
4.21119,0.57525295
4.216291,0.58559194
4.221404,0.59804633
4.226529,0.6064858
4.231666,0.61558264
4.236816,0.61760331
4.241979,0.62196362
4.247154,0.61455982
4.252341,0.60891442
4.257542,0.58716627
4.262754,0.59909951
4.26798,0.6149311
4.273219,0.61397116
4.27847,0.61586009
4.283734,0.61334483
4.289011,0.61717539
4.294301,0.61760658
4.299604,0.61493115
4.30492,0.61645711
4.31025,0.61549184
4.315592,0.61028064
4.320948,0.60668247
4.326317,0.60697664
4.331699,0.60470206
4.337095,0.60303227
4.342504,0.60082687
4.347926,0.60072614
4.353362,0.60088526
4.358811,0.6004439
4.364275,0.60070669
4.369751,0.60150678
4.375242,0.60190233
4.380746,0.60277544
4.386264,0.60481888
4.391796,0.60716301
4.397342,0.60957663
4.402902,0.61138401
4.408476,0.6126154
4.414064,0.6150655
4.419666,0.61680194
4.425282,0.61794625
4.430913,0.61964354
4.436558,0.62136296
4.442217,0.62302005
4.447891,0.62519615
4.453579,0.62565511
4.459281,0.62732
4.464998,0.62788809
4.47073,0.62991736
4.476477,0.63012921
4.482238,0.63139988
4.488014,0.63175282
4.493805,0.63362738
4.499611,0.6341723
4.505431,0.63638014
4.511267,0.63680179
4.517118,0.6381829
4.522984,0.63888948
4.528865,0.64065934
4.534762,0.64066324
4.540674,0.64132167
4.546601,0.64211885
4.552543,0.64250612
4.558502,0.64315667
4.564475,0.64356632
4.570465,0.64495547
4.57647,0.64606645
4.582491,0.64720281
4.588527,0.64876553
4.59458,0.65077825
4.600648,0.6528327
4.606732,0.65595599
4.612833,0.65953131
4.618949,0.66198138
4.625082,0.66557096
4.631231,0.66900841
4.637397,0.67258228
4.643578,0.67579766
4.649777,0.67921669
4.655991,0.68184018
4.662223,0.68532617
4.668471,0.68802336
4.674735,0.69223718
4.681017,0.69452889
4.687315,0.69688784
4.69363,0.69993367
4.699962,0.70248451
4.706312,0.70564034
4.712678,0.70756715
4.719062,0.70941231
4.725463,0.7114276
4.731881,0.71428811
4.738316,0.71625965
4.744769,0.71780453
4.75124,0.72062001
4.757728,0.72194536
4.764234,0.72363071
4.770758,0.72638834
4.777299,0.72757537
4.783859,0.72927759
4.790436,0.73111325
4.797032,0.73402097
4.803645,0.73531915
4.810277,0.73559178
4.816927,0.73589384
4.823596,0.73813767
4.830283,0.73930761
4.836988,0.74033064
4.843712,0.74261111
4.850455,0.74298008
4.857216,0.74447494
4.863996,0.74528735
4.870795,0.74678957
4.877613,0.74782956
4.884451,0.74946446
4.891307,0.75038491
4.898182,0.75257886
4.905077,0.75279254
4.911991,0.75377656
4.918925,0.75497079
4.925878,0.75657437
4.932851,0.75743154
4.939844,0.75930929
4.946856,0.76006213
4.953888,0.76217286
4.960941,0.76333184
4.968013,0.76210025
4.975105,0.76319958
4.982218,0.76418227
4.989351,0.76539813
4.996504,0.76538632
5.003678,0.76656189
5.010872,0.76524773
5.018087,0.76930289
5.025323,0.76886354
5.03258,0.76708796
5.039857,0.76687155
5.047156,0.76692042
5.054475,0.76773212
5.061816,0.76824992
5.069179,0.7708494
5.076562,0.77288729
5.083967,0.77744651
5.091394,0.77611825
5.098842,0.77804249
5.106312,0.7786446
5.113804,0.7804484
5.121318,0.78050152
5.128854,0.78197797
5.136412,0.78169907
5.143992,0.78696991
5.151595,0.78778737
5.15922,0.78305785
5.166868,0.78545298
5.174538,0.78439282
5.182231,0.78590415
5.189947,0.78468314
5.197686,0.78982692
5.205448,0.78811938
5.213233,0.79301259
5.221041,0.78717594
5.228873,0.78554542
5.236728,0.78957102
5.244607,0.78700054
5.25251,0.78806048
5.260436,0.78798162
5.268386,0.78976852
5.27636,0.79160472
5.284358,0.7910025
5.292381,0.79606669
5.300428,0.79099471
5.308499,0.79074249
5.316595,0.79089571
5.324715,0.7901135
5.33286,0.78978182
5.341031,0.78891155
5.349226,0.80261258
5.357446,0.79213713
5.365692,0.78572896
5.373962,0.78658919
5.382259,0.7857483
5.390581,0.78537816
5.398928,0.78584894
5.407302,0.78780198
5.415701,0.79671647
5.424127,0.80733387
5.432579,0.7863126
5.441057,0.79542739
5.449561,0.78976874
5.458092,0.80209244
5.46665,0.80504346
5.475234,0.80231601
5.483846,0.80185714
5.492484,0.79291197
5.50115,0.79965815
5.509843,0.79263734
5.518564,0.80218297
5.527312,0.7952646
5.536087,0.79065828
5.544891,0.79569797
5.553723,0.79686373
5.562582,0.76982464
5.57147,0.76408286
5.580387,0.74717043
5.589332,0.79688052
5.598305,0.8144235
5.607307,0.81717306
5.616339,0.82964635
5.625399,0.83144722
5.634489,0.83524694
5.643607,0.84127173
5.652756,0.83863742
5.661934,0.83055779
5.671142,0.83897941
5.680379,0.84170125
5.689647,0.83903997
5.698945,0.83751833
5.708274,0.84774317
5.717633,0.85588429
5.727022,0.84199782
5.736443,0.85005164
5.745894,0.8504303
5.755377,0.84613386
5.76489,0.86782957
5.774436,0.85744879
5.784012,0.84761198
5.793621,0.85402319
5.803262,0.84895437
5.812934,0.86668
5.822639,0.87966318
5.832376,0.86627257
5.842146,0.85734631
5.851948,0.86620302
5.861783,0.86931108
5.871652,0.87782307
5.881553,0.89389725
5.891488,0.88409976
5.901457,0.87721389
5.911459,0.86878304
5.921495,0.87762049
5.931565,0.89154702
5.94167,0.8997925
5.951809,0.87212325
5.961982,0.89531696
5.97219,0.88559078
5.982433,0.89663596
5.992711,0.88994515
6.003025,0.88421671
6.013374,0.89613027
6.023759,0.88566251
6.034179,0.89033648
6.044636,0.93454421
6.055129,0.89935377
6.065658,0.91042229
6.076224,0.90734064
6.086826,0.89486753
6.097466,0.90103061
6.108143,0.92108227
6.118857,0.90972296
6.129609,0.9009978
6.140398,0.91059031
6.151226,0.91047319
6.162091,0.91424219
6.172996,0.90869061
6.183938,0.92679077
6.19492,0.90629805
6.20594,0.91493937
6.217,0.91138961
6.228099,0.91427998
6.239237,0.91320863
6.250416,0.91480111
6.261635,0.91384259
6.272893,0.91720856
6.284193,0.91474332
6.295533,0.9179582
6.306914,0.91637189
6.318336,0.9187057
6.329799,0.91955458
6.341304,0.93748716
6.352851,0.91869365
6.36444,0.93308559
6.376071,0.92727233
6.387745,0.9260129
6.399461,0.93381376
6.411221,0.96281615
6.423023,0.93526276
6.434869,0.93683347
6.446759,0.93194008
6.458693,0.93588606
6.470671,0.94045213
6.482693,0.95853043
6.49476,0.94851187
6.506872,0.93891421
6.519029,0.94693331
6.531231,0.93832934
6.54348,0.94682791
6.555774,0.94875883
6.568114,0.95669343
6.580501,0.95305552
6.592934,0.95153963
6.605415,0.94826776
6.617943,0.95450183
6.630518,0.97085048
6.643141,0.95197359
6.655812,0.94836845
6.668532,0.95792252
6.6813,0.95475535
6.694117,0.95083386
6.706983,0.96283157
6.719899,0.955883
6.732864,0.95313487
6.745879,0.95368036
6.758945,0.95659282
6.772062,0.96234856
6.785229,0.96939127
6.798448,0.95646389
6.811718,0.96081598
6.825039,0.96323887
6.838413,0.95916879
6.85184,0.97586928
6.865319,0.97109881
6.878851,0.96091486
6.892437,0.96753067
6.906076,0.96492029
6.919769,0.96528903
6.933517,0.96310857
6.947319,0.9728858
6.961176,0.97187653
6.975089,0.96817014
6.989057,0.97225838
7.003081,0.96956147
7.017161,0.97261265
7.031298,0.97517579
7.045492,0.9803266
7.059743,0.97143734
7.074052,0.97488938
7.088419,0.97231874
7.102845,0.97708465
7.117329,0.97592522
7.131872,0.97717699
7.146475,0.98049554
7.161137,0.98210841
7.17586,0.97959873
7.190643,0.98040654
7.205487,0.98341941
7.220393,0.97959645
7.23536,0.98314857
7.25039,0.98181351
7.265481,0.98664367
7.280636,0.98423165
7.295854,0.98516646
7.311135,0.98471695
7.326481,0.98877096
7.341891,0.98808546
7.357366,0.98714137
7.372906,0.98793615
7.388512,0.98842106
7.404184,0.98837783
7.419922,0.98917653
7.435728,0.98962215
7.451601,0.99241755
7.467541,0.99296591
7.48355,0.99136177
7.499628,0.9918547
7.515774,0.99250546
7.53199,0.99357189
7.548277,0.99388078
7.564633,0.99483238
7.581061,0.9955833
7.59756,0.99561795
7.614131,0.99639854
7.630774,0.99634203
7.647491,0.99688315
7.66428,0.9969551
7.681143,0.99727209
7.69808,0.9979746
7.715093,0.99879454
7.73218,0.999106
7.749343,0.0100028312
7.766583,0.99918656
7.783899,0.99994413
7.801292,0.0100054537
7.818764,0.0100068938
7.836313,0.010010755
7.853942,0.0100189176
7.871649,0.0100186371
7.889437,0.0100277005
7.907305,0.0100279449
7.925254,0.0100388
7.943285,0.0100387848
7.961398,0.0100461417
7.979594,0.010050776
7.997872,0.0100568421
8.016235,0.0100602583
8.034682,0.0100690524
8.053214,0.0100706418
8.071832,0.0100821255
8.090535,0.0100808978
8.109326,0.0100924256
8.128204,0.0100938768
8.147169,0.0101010451
8.166224,0.0101033273
8.185368,0.0101074561
8.204601,0.0101105545
8.223925,0.0101181195
8.24334,0.0101181201
8.262847,0.0101248147
8.282446,0.0101265764
8.302139,0.0101326479
8.321925,0.0101359832
8.341805,0.0101373552
8.361781,0.0101403496
8.381852,0.0101479997
8.40202,0.0101463957
8.422285,0.0101524433
8.442648,0.0101538654
8.463109,0.0101617461
8.48367,0.0101680495
8.504331,0.0101754296
8.525092,0.0101795759
8.545955,0.0101850243
8.566921,0.0101866772
8.587989,0.0101927348
8.609161,0.010195281
8.630437,0.0101995332
8.651819,0.0102017501
8.673307,0.0102091458
8.694902,0.0102101424
8.716604,0.010216095
8.738415,0.0102153154
8.760335,0.0102203712
8.782365,0.0102205251
8.804507,0.0102309987
8.82676,0.010230454
8.849125,0.0102357161
8.871604,0.0102378371
8.894198,0.0102447813
8.916907,0.0102486722
8.939732,0.01025881
8.962673,0.0102610017
8.985733,0.0102660151
9.008912,0.0102652465
9.03221,0.0102726576
9.055629,0.0102747692
9.07917,0.0102799109
9.102833,0.0102787194
9.12662,0.0102833134
9.150531,0.010282292
9.174568,0.0102807657
9.198731,0.0102855586
9.223022,0.0102863112
9.247441,0.010285706
9.27199,0.0102814211
9.296669,0.0102815297
9.32148,0.0102836151
9.346423,0.010283245
9.3715,0.0102828419
9.396712,0.0102808864
9.42206,0.0102868143
9.447545,0.0102828166
9.473167,0.0102874745
9.498929,0.0102831641
9.524832,0.0102842905
9.550876,0.0102832745
9.577062,0.0102871785
9.603393,0.0102869997
9.629868,0.0102909527
9.65649,0.0102882687
9.683259,0.0102901716
9.710176,0.0102964856
9.737244,0.0102974337
9.764463,0.0102983153
9.791834,0.0102995128
9.819359,0.0103017585
9.847039,0.0103035736
9.874875,0.0103056534
9.902869,0.0103084195
9.931022,0.0103077059
9.959336,0.0103086855
9.987811,0.0103083869
10.016449,0.0103135407
10.045252,0.0103092627
10.074221,0.0103094613
10.103357,0.0103062372
10.132662,0.0103095028
10.162137,0.0103071306
10.191784,0.010309453
10.221604,0.0103086944
10.2516,0.0103083653
10.281771,0.0103093851
10.312121,0.0103086603
10.34265,0.0103119802
10.37336,0.0103104664
10.404253,0.0103079038
10.435331,0.0103094697
10.466594,0.0103098677
10.498045,0.0103128389
10.529686,0.0103128239
10.561517,0.0103115616
10.593542,0.0103082902
10.625761,0.0103096592
10.658176,0.0103088267
10.69079,0.0103119739
10.723604,0.0103134798
10.756619,0.0103124368
10.789839,0.0103162029
10.823264,0.0103145
10.856896,0.0103113364
10.890738,0.0103091126
10.924791,0.0103105464
10.959058,0.0103082579
10.993541,0.0103112447
11.02824,0.0103104072
11.06316,0.010311011
11.098301,0.0103190808
11.133665,0.0103281968
11.169256,0.0103314975
11.205075,0.0103314713
11.241124,0.0103242917
11.277405,0.0103220617
11.313921,0.0103241206
11.350675,0.0103261646
11.387667,0.0103235812
11.424901,0.0103287049
11.46238,0.0103306172
11.500105,0.0103264756
11.538079,0.0103265263
11.576304,0.0103153036
11.614783,0.0103104091
11.653518,0.0103137027
11.692513,0.0103001856
11.731769,0.010297913
11.77129,0.0103033998
11.811077,0.0102940511
11.851134,0.0102871227
11.891464,0.0102889227
11.932068,0.0102836755
11.972951,0.0102825688
12.014114,0.010279138
12.055562,0.0102846386
12.097296,0.0102823091
12.13932,0.0102868876
12.181636,0.0102849779
12.224249,0.0102886482
12.26716,0.0102872409
12.310373,0.0102885346
12.353892,0.0102861333
12.397719,0.010291801
12.441859,0.0102875794
12.486313,0.0102901006
12.531086,0.0102914812
12.57618,0.0102965442
12.621601,0.0102928745
12.66735,0.0102991803
12.713432,0.0102955118
12.75985,0.0102965337
12.806608,0.0102983926
12.85371,0.0102991436
12.901159,0.0102927378
12.94896,0.0102955033
12.997116,0.0102927389
13.045631,0.0102942485
13.09451,0.0102933856
13.143756,0.0102955531
13.193373,0.010295235
13.243366,0.010288571
13.29374,0.0102908932
13.344497,0.0102951204
13.395644,0.0102910822
13.447183,0.010281094
13.499121,0.0102794578
13.551461,0.0102857768
13.604208,0.0102788143
13.657367,0.0102752632
13.710943,0.0102776105
13.764941,0.0102733573
13.819365,0.0102682858
13.874221,0.0102658335
13.929515,0.0102678515
13.98525,0.0102715819
14.041433,0.010264032
14.098068,0.0102484697
14.155163,0.0102477906
14.212721,0.0102507998
14.270749,0.0102246505
14.329252,0.0102214029
14.388237,0.0102172079
14.447709,0.0102028356
14.507674,0.0101885265
14.568139,0.01017176
14.629109,0.0101465723
14.690592,0.0101479323
14.752594,0.0101069975
14.815121,0.0101129376
14.878179,0.0100826294
14.941777,0.9778709
15.00592,0.99716186
15.070616,0.0100025588
15.135871,0.9920789
15.201695,0.98996001
15.268092,0.97334023
15.335072,0.97392063
15.402642,0.95484244
15.47081,0.95196787
15.539583,0.91970254
15.60897,0.91010871
15.678979,0.86740656
15.749619,0.84587999
15.820897,0.80331849
15.892824,0.78666177
15.965407,0.73058154
