Database of Origin,University of Winnipeg Spectrophotometer Facility
Sample Description,See Master Clays in HOSERLab database
Date Added,2016-12-11 20:56:55.193208

Data ID,FTIR_CLAY_06        
Sample ID,GRE001
Mineral Name,Greenalite
Grain Size,<45 m
Viewing Geometry,35/0
Resolution,11-72 nm
Material Class,Phyllosilicate

Wavelength
2001.142,0.11717962
2002.307,0.1173446
2003.474,0.11732147
2004.643,0.1170272
2005.812,0.1171389
2006.983,0.11737742
2008.155,0.11742629
2009.329,0.117194
2010.504,0.11684113
2011.68,0.11697424
2012.858,0.11735726
2014.037,0.11741345
2015.217,0.11733572
2016.399,0.11714107
2017.582,0.11670985
2018.766,0.11682218
2019.952,0.11739068
2021.139,0.11724706
2022.328,0.11700173
2023.518,0.11704752
2024.709,0.11690392
2025.902,0.11674594
2027.096,0.11683912
2028.291,0.11721123
2029.488,0.11745416
2030.686,0.11734899
2031.886,0.11711654
2033.087,0.11709901
2034.289,0.117259
2035.493,0.11761611
2036.698,0.11790415
2037.905,0.11791824
2039.113,0.11805438
2040.322,0.11841168
2041.533,0.11855758
2042.746,0.11821735
2043.959,0.11796568
2045.174,0.11828179
2046.391,0.11883567
2047.609,0.11904002
2048.828,0.11892674
2050.049,0.11840711
2051.271,0.11784064
2052.495,0.11815524
2053.72,0.11869286
2054.947,0.1185998
2056.175,0.118523
2057.404,0.1185492
2058.635,0.11819307
2059.867,0.11801246
2061.101,0.11815911
2062.336,0.11836643
2063.573,0.11869673
2064.811,0.11879749
2066.051,0.11870329
2067.292,0.11862266
2068.534,0.11870872
2069.778,0.11895954
2071.024,0.11887578
2072.271,0.11860328
2073.519,0.11870244
2074.769,0.11896896
2076.02,0.11878251
2077.273,0.11861834
2078.528,0.11886277
2079.784,0.11876446
2081.041,0.11864706
2082.3,0.11895058
2083.56,0.11907791
2084.822,0.1188982
2086.085,0.11882012
2087.35,0.11910367
2088.617,0.11934454
2089.885,0.11927703
2091.154,0.11920126
2092.425,0.11926061
2093.697,0.11923681
2094.971,0.11897445
2096.247,0.11895998
2097.524,0.11945107
2098.803,0.1197977
2100.083,0.11968669
2101.364,0.11947964
2102.648,0.11941458
2103.932,0.1192739
2105.219,0.11906867
2106.506,0.11901718
2107.796,0.11872351
2109.087,0.11847293
2110.379,0.11856516
2111.673,0.11844173
2112.969,0.11805173
2114.266,0.1177992
2115.565,0.11789629
2116.865,0.11834145
2118.167,0.11879377
2119.471,0.11872695
2120.776,0.11846579
2122.082,0.11852606
2123.391,0.11880746
2124.7,0.11903595
2126.012,0.11917045
2127.325,0.11935183
2128.64,0.11938894
2129.956,0.11919117
2131.274,0.11885166
2132.593,0.11862986
2133.914,0.11856353
2135.237,0.11822971
2136.561,0.11790567
2137.887,0.11792094
2139.214,0.11814922
2140.544,0.11879203
2141.874,0.11938053
2143.207,0.11939044
2144.541,0.1192978
2145.876,0.11936281
2147.214,0.11949032
2148.553,0.1197354
2149.893,0.11994843
2151.235,0.11975794
2152.579,0.11951287
2153.925,0.11981238
2155.272,0.12017205
2156.621,0.12003057
2157.972,0.1199924
2159.324,0.12010311
2160.678,0.12017264
2162.033,0.12065322
2163.39,0.12081781
2164.749,0.12052006
2166.11,0.12023553
2167.472,0.1202299
2168.836,0.12082805
2170.202,0.12117643
2171.569,0.12114655
2172.938,0.1212112
2174.309,0.12109252
2175.682,0.12094112
2177.056,0.12089348
2178.432,0.12094712
2179.809,0.12118085
2181.189,0.12118666
2182.57,0.12111303
2183.952,0.12124464
2185.337,0.12138902
2186.723,0.12154823
2188.111,0.12147303
2189.501,0.12144247
2190.892,0.12176997
2192.285,0.12171566
2193.68,0.1215471
2195.077,0.12176631
2196.476,0.121783
2197.876,0.12153375
2199.278,0.12167216
2200.682,0.12220549
2202.087,0.12226313
2203.494,0.12200718
2204.903,0.12196581
2206.314,0.1217895
2207.727,0.12167815
2209.141,0.12166797
2210.557,0.12162728
2211.975,0.1218516
2213.395,0.12190207
2214.817,0.12160309
2216.24,0.12188195
2217.665,0.12270173
2219.092,0.12291743
2220.521,0.1223428
2221.952,0.12194014
2223.384,0.12200183
2224.818,0.12198096
2226.254,0.12205012
2227.692,0.12227239
2229.132,0.12233333
2230.574,0.12219727
2232.017,0.12208548
2233.462,0.12210232
2234.91,0.12190474
2236.359,0.12156386
2237.809,0.12142641
2239.262,0.1215141
2240.717,0.12179958
2242.173,0.12212094
2243.631,0.12224385
2245.092,0.12212844
2246.554,0.12205162
2248.017,0.12216251
2249.483,0.12216941
2250.951,0.12227512
2252.421,0.1223795
2253.892,0.12213035
2255.365,0.12182934
2256.841,0.1216126
2258.318,0.12156864
2259.797,0.12162844
2261.278,0.12148906
2262.761,0.12128879
2264.246,0.1211892
2265.732,0.12125236
2267.221,0.12137351
2268.712,0.12125642
2270.204,0.121189
2271.699,0.1213303
2273.195,0.12128262
2274.694,0.12099208
2276.194,0.12083526
2277.696,0.12098209
2279.201,0.12126294
2280.707,0.12126299
2282.215,0.12092592
2283.725,0.12072178
2285.237,0.12082652
2286.752,0.12097673
2288.268,0.12092353
2289.786,0.12094067
2291.306,0.12124315
2292.828,0.12138818
2294.352,0.12127631
2295.878,0.12120008
2297.406,0.12093696
2298.936,0.12046196
2300.468,0.1202217
2302.002,0.12026012
2303.539,0.12031815
2305.077,0.12017832
2306.617,0.11993354
2308.159,0.11985593
2309.703,0.1197438
2311.25,0.11953081
2312.798,0.11943687
2314.348,0.11961939
2315.901,0.11978559
2317.455,0.11968069
2319.012,0.11963351
2320.571,0.11938035
2322.131,0.11906774
2323.694,0.119114
2325.259,0.11933309
2326.826,0.1196658
2328.395,0.11969668
2329.966,0.11934454
2331.54,0.11908251
2333.115,0.11900456
2334.692,0.11903433
2336.272,0.11898405
2337.854,0.11870628
2339.437,0.1183685
2341.023,0.11827465
2342.611,0.11817584
2344.201,0.11786492
2345.794,0.11782034
2347.388,0.11810745
2348.985,0.11828414
2350.583,0.1182304
2352.184,0.11831964
2353.787,0.11874693
2355.393,0.11928164
2357.0,0.11943169
2358.609,0.11941327
2360.221,0.11967243
2361.835,0.12003434
2363.451,0.1205782
2365.069,0.12100366
2366.69,0.12115993
2368.312,0.12126911
2369.937,0.12134451
2371.564,0.12158748
2373.194,0.12187644
2374.825,0.12223998
2376.459,0.1227676
2378.095,0.1230226
2379.733,0.12294909
2381.373,0.12285669
2383.016,0.12296546
2384.661,0.12316586
2386.308,0.12335039
2387.957,0.12366675
2389.609,0.1239065
2391.263,0.12381379
2392.919,0.12353077
2394.577,0.12350374
2396.238,0.12383797
2397.901,0.12407668
2399.566,0.12392197
2401.233,0.12376395
2402.903,0.12374505
2404.575,0.12356373
2406.25,0.12346305
2407.926,0.1233839
2409.606,0.12327336
2411.287,0.12346254
2412.971,0.12379747
2414.657,0.12397822
2416.345,0.12384126
2418.036,0.12364758
2419.729,0.12363623
2421.424,0.12360541
2423.122,0.12356166
2424.822,0.12355133
2426.524,0.12348509
2428.229,0.12341051
2429.936,0.12336781
2431.646,0.12340581
2433.358,0.12356265
2435.072,0.12359051
2436.789,0.12345115
2438.508,0.1234779
2440.229,0.12341015
2441.953,0.12324738
2443.679,0.12338879
2445.408,0.1234708
2447.139,0.12334884
2448.873,0.12315156
2450.609,0.12290979
2452.347,0.12280648
2454.088,0.12289168
2455.831,0.12298601
2457.577,0.12306764
2459.325,0.12289428
2461.076,0.12252493
2462.829,0.1224896
2464.585,0.12240139
2466.343,0.12217895
2468.104,0.12226229
2469.867,0.12236825
2471.632,0.12232609
2473.4,0.12229048
2475.171,0.12226224
2476.944,0.12219258
2478.72,0.1222059
2480.498,0.12232966
2482.278,0.12225694
2484.062,0.12211955
2485.847,0.12215805
2487.636,0.12232627
2489.427,0.12234866
2491.22,0.12228134
2493.016,0.12243024
2494.814,0.12258875
2496.615,0.12281887
2498.419,0.12296928
2500.225,0.12284
2502.034,0.1228938
2503.845,0.12312931
2505.659,0.12312304
2507.476,0.12298502
2509.295,0.1230551
2511.117,0.12315198
2512.942,0.12317863
2514.769,0.12330898
2516.598,0.12340805
2518.431,0.12339419
2520.266,0.12350862
2522.103,0.12402465
2523.944,0.12435673
2525.787,0.12414272
2527.632,0.12403399
2529.48,0.12459421
2531.331,0.12560613
2533.185,0.12612211
2535.041,0.12620261
2536.9,0.12573841
2538.762,0.12512082
2540.627,0.12593254
2542.494,0.12721913
2544.364,0.12682861
2546.236,0.12640437
2548.112,0.12678137
2549.99,0.12746835
2551.87,0.12826196
2553.754,0.12729728
2555.64,0.12565444
2557.529,0.12572948
2559.421,0.12876689
2561.316,0.13370404
2563.213,0.13461144
2565.113,0.13042595
2567.016,0.12806273
2568.922,0.12885964
2570.831,0.12959742
2572.742,0.13054272
2574.656,0.13151994
2576.573,0.13068211
2578.493,0.12897558
2580.416,0.12954418
2582.342,0.13288498
2584.27,0.13420362
2586.201,0.13317666
2588.135,0.13211099
2590.072,0.1300541
2592.012,0.13169497
2593.955,0.14098934
2595.9,0.14061822
2597.849,0.13088264
2599.8,0.12828343
2601.755,0.13080166
2603.712,0.1348322
2605.672,0.13666482
2607.635,0.13406595
2609.601,0.13054585
2611.57,0.12822559
2613.542,0.12900789
2615.517,0.13347793
2617.495,0.13672724
2619.475,0.13551549
2621.459,0.13147955
2623.446,0.12824354
2625.435,0.12971582
2627.428,0.13287741
2629.424,0.13523297
2631.423,0.13573953
2633.424,0.13253384
2635.429,0.12929006
2637.437,0.12741805
2639.447,0.12735357
2641.461,0.12805107
2643.478,0.12871375
2645.498,0.12967219
2647.521,0.12860285
2649.547,0.12717199
2651.576,0.12892481
2653.609,0.13122348
2655.644,0.13042506
2657.682,0.12980837
2659.724,0.13141257
2661.768,0.1324103
2663.816,0.13616248
2665.867,0.14347426
2667.921,0.14429534
2669.978,0.14393301
2672.038,0.13927008
2674.102,0.13487823
2676.168,0.13936481
2678.238,0.14038549
2680.311,0.13187661
2682.387,0.12869235
2684.467,0.13050025
2686.549,0.13053979
2688.635,0.12781796
2690.724,0.12638142
2692.816,0.12998785
2694.911,0.13328187
2697.01,0.12784283
2699.112,0.12378581
2701.217,0.12345898
2703.325,0.12133857
2705.437,0.1185026
2707.552,0.11919882
2709.67,0.12305079
2711.791,0.11993865
2713.916,0.10980634
2716.044,0.10232938
2718.175,0.10181247
2720.31,0.10508617
2722.448,0.10080933
2724.589,0.09210587
2726.734,0.08047642
2728.882,0.07052313
2731.034,0.06430233
2733.188,0.06041364
2735.347,0.05648535
2737.508,0.05258435
2739.673,0.05211516
2741.841,0.04908767
2744.013,0.04243882
2746.188,0.03865647
2748.367,0.03712491
2750.549,0.03635753
2752.734,0.03619938
2754.923,0.03683592
2757.115,0.03543973
2759.311,0.03300007
2761.51,0.03261593
2763.713,0.03298314
2765.919,0.0322533
2768.129,0.03157134
2770.342,0.03163112
2772.559,0.03159322
2774.779,0.03127784
2777.003,0.0310673
2779.23,0.03090849
2781.461,0.0307426
2783.696,0.03045593
2785.934,0.03023364
2788.175,0.03028534
2790.42,0.03018061
2792.669,0.02991663
2794.922,0.02987102
2797.178,0.02979055
2799.437,0.02972663
2801.7,0.03021088
2803.967,0.03085368
2806.238,0.0310496
2808.512,0.03124203
2810.789,0.03135833
2813.071,0.03129227
2815.356,0.03124557
2817.645,0.03157446
2819.937,0.0318657
2822.233,0.03192063
2824.533,0.03217126
2826.837,0.03243731
2829.144,0.03259868
2831.455,0.03262853
2833.77,0.03285134
2836.089,0.03322333
2838.411,0.03332268
2840.737,0.03363433
2843.067,0.03405292
2845.401,0.03429307
2847.739,0.03420367
2850.08,0.03403991
2852.425,0.03427926
2854.774,0.03428809
2857.127,0.03406623
2859.484,0.03438731
2861.844,0.03474449
2864.209,0.0346485
2866.577,0.03454958
2868.949,0.03453562
2871.325,0.034491
2873.705,0.03471671
2876.089,0.03482761
2878.477,0.03467584
2880.869,0.03442721
2883.265,0.03385555
2885.664,0.03372757
2888.068,0.03479284
2890.476,0.03549401
2892.887,0.03468037
2895.303,0.03385468
2897.723,0.03354151
2900.146,0.03323075
2902.574,0.0331987
2905.006,0.03327003
2907.441,0.03326073
2909.881,0.0332822
2912.325,0.03323558
2914.773,0.03361873
2917.225,0.03462483
2919.681,0.03486906
2922.142,0.03437655
2924.606,0.03395735
2927.075,0.03347741
2929.547,0.03325454
2932.024,0.03328289
2934.505,0.03344754
2936.99,0.03390444
2939.479,0.03414353
2941.973,0.0338814
2944.471,0.03423998
2946.973,0.03598887
2949.479,0.03643342
2951.989,0.03529467
2954.504,0.035692
2957.023,0.0360744
2959.546,0.03495197
2962.073,0.03428383
2964.605,0.03453846
2967.141,0.03498811
2969.681,0.03506728
2972.226,0.03562989
2974.775,0.03751786
2977.328,0.03813255
2979.886,0.03678235
2982.448,0.03604181
2985.015,0.03591813
2987.586,0.03587243
2990.161,0.0369606
2992.74,0.03791704
2995.324,0.03730726
2997.913,0.03704171
3000.506,0.03806094
3003.103,0.03886574
3005.705,0.03838602
3008.312,0.03752621
3010.922,0.03767185
3013.538,0.03870934
3016.158,0.03915972
3018.782,0.03878945
3021.411,0.0386959
3024.044,0.03883659
3026.683,0.03940851
3029.325,0.0412002
3031.972,0.04337549
3034.624,0.0432376
3037.281,0.04144934
3039.942,0.04104041
3042.607,0.04204573
3045.278,0.04290162
3047.953,0.04235629
3050.632,0.04142254
3053.317,0.04135118
3056.006,0.04165104
3058.7,0.04223519
3061.398,0.04331839
3064.101,0.04479483
3066.809,0.04513779
3069.522,0.0440856
3072.239,0.04352616
3074.962,0.04370132
3077.689,0.04416886
3080.421,0.04447531
3083.157,0.04430408
3085.899,0.04476679
3088.645,0.0454746
3091.396,0.04528014
3094.153,0.04509267
3096.914,0.04549499
3099.679,0.0466238
3102.45,0.04715399
3105.226,0.04615251
3108.007,0.04548003
3110.792,0.04564414
3113.583,0.04594202
3116.378,0.04618765
3119.179,0.04645411
3121.985,0.04650881
3124.795,0.04648376
3127.611,0.04676975
3130.431,0.04684755
3133.257,0.04672099
3136.088,0.04688132
3138.924,0.04720282
3141.765,0.04762943
3144.611,0.04809863
3147.462,0.04819619
3150.319,0.04816205
3153.18,0.04834732
3156.047,0.04860679
3158.919,0.04888502
3161.796,0.04902697
3164.678,0.04914242
3167.566,0.04933708
3170.458,0.04950789
3173.356,0.04961036
3176.26,0.0501705
3179.168,0.05209874
3182.082,0.05340538
3185.001,0.05243565
3187.926,0.05149456
3190.856,0.05204912
3193.791,0.05345723
3196.731,0.05374054
3199.677,0.05296409
3202.629,0.05321493
3205.585,0.05370175
3208.548,0.05353541
3211.515,0.05479959
3214.488,0.05786058
3217.467,0.05946651
3220.451,0.0579048
3223.441,0.05624883
3226.436,0.05626501
3229.437,0.05576393
3232.443,0.05563127
3235.455,0.05640344
3238.472,0.05615859
3241.495,0.05626707
3244.523,0.05747048
3247.558,0.05825043
3250.598,0.05926149
3253.643,0.06082358
3256.694,0.06183747
3259.751,0.06100464
3262.814,0.05876679
3265.882,0.05829083
3268.956,0.05969174
3272.036,0.06004901
3275.122,0.05912609
3278.213,0.05886552
3281.31,0.05962103
3284.413,0.06056151
3287.522,0.061025
3290.637,0.0611385
3293.757,0.06229989
3296.884,0.06351509
3300.016,0.06265911
3303.155,0.06211975
3306.299,0.0629017
3309.449,0.06254179
3312.605,0.06193859
3315.767,0.06229925
3318.936,0.0624305
3322.11,0.0629543
3325.29,0.06503
3328.476,0.06709496
3331.669,0.06634712
3334.867,0.06371613
3338.072,0.06242531
3341.282,0.06273051
3344.499,0.06372948
3347.722,0.06469771
3350.952,0.06533482
3354.187,0.06477119
3357.429,0.0632923
3360.677,0.06329674
3363.931,0.06471159
3367.191,0.06543733
3370.458,0.06505375
3373.731,0.06448733
3377.01,0.06385274
3380.296,0.06363969
3383.588,0.0642706
3386.886,0.06487246
3390.191,0.06485089
3393.502,0.06525816
3396.82,0.06642858
3400.144,0.06720245
3403.475,0.06842874
3406.812,0.06955614
3410.156,0.06845586
3413.506,0.0670952
3416.862,0.06700144
3420.226,0.0677952
3423.596,0.06923865
3426.972,0.06947647
3430.355,0.06893178
3433.745,0.06957275
3437.141,0.07150452
3440.545,0.07430168
3443.954,0.07543247
3447.371,0.07354084
3450.794,0.07193184
3454.224,0.07198794
3457.661,0.07211452
3461.105,0.07252508
3464.556,0.07325141
3468.013,0.07310977
3471.477,0.07279663
3474.948,0.07300501
3478.426,0.07321076
3481.911,0.07338199
3485.403,0.07384927
3488.902,0.07579853
3492.408,0.07733231
3495.921,0.07619777
3499.441,0.07518589
3502.968,0.07548906
3506.502,0.07624977
3510.043,0.0768198
3513.592,0.07682416
3517.147,0.07712404
3520.71,0.07802403
3524.28,0.078727
3527.857,0.07893423
3531.441,0.08052831
3535.032,0.08243775
3538.631,0.08198864
3542.237,0.08084965
3545.851,0.08055054
3549.471,0.0807475
3553.099,0.08113104
3556.735,0.08149295
3560.378,0.08178957
3564.028,0.08215384
3567.686,0.08302992
3571.351,0.08381677
3575.024,0.08369701
3578.704,0.0835746
3582.392,0.08450219
3586.088,0.08558761
3589.791,0.08567501
3593.501,0.08608145
3597.22,0.08699133
3600.946,0.08650949
3604.679,0.08560126
3608.421,0.08565618
3612.17,0.08666061
3615.926,0.0880215
3619.691,0.08807451
3623.463,0.08751059
3627.244,0.08762982
3631.032,0.0878787
3634.828,0.08816769
3638.632,0.08855896
3642.444,0.08892902
3646.263,0.089642
3650.091,0.09061005
3653.927,0.0908505
3657.771,0.09052149
3661.623,0.09079542
3665.483,0.09150817
3669.351,0.09176948
3673.227,0.0918245
3677.111,0.09265016
3681.004,0.09390131
3684.905,0.09438121
3688.814,0.09416382
3692.731,0.09398267
3696.656,0.09422339
3700.59,0.09478884
3704.532,0.0952287
3708.483,0.09551837
3712.442,0.09588722
3716.409,0.09624531
3720.385,0.09654851
3724.37,0.09697062
3728.362,0.09746848
3732.364,0.09783951
3736.374,0.09835176
3740.392,0.09945076
3744.419,0.10075904
3748.455,0.10136299
3752.499,0.10134158
3756.553,0.10131638
3760.614,0.10149665
3764.685,0.10199161
3768.764,0.10256068
3772.853,0.10298585
3776.95,0.10341543
3781.056,0.10390372
3785.17,0.10435517
3789.294,0.10478051
3793.427,0.10527776
3797.568,0.10597995
3801.719,0.10678487
3805.879,0.10738409
3810.048,0.10781907
3814.225,0.10831296
3818.412,0.10898553
3822.609,0.10963205
3826.814,0.11005311
3831.029,0.11052386
3835.252,0.11113558
3839.486,0.11173191
3843.728,0.11241353
3847.98,0.11317047
3852.241,0.11383576
3856.512,0.11449942
3860.792,0.11518535
3865.081,0.11576988
3869.38,0.11629172
3873.689,0.1169393
3878.007,0.11779822
3882.334,0.11868168
3886.672,0.11935376
3891.019,0.11995818
3895.375,0.12066926
3899.742,0.12129963
3904.118,0.12195621
3908.504,0.12270253
3912.9,0.12345913
3917.305,0.12429115
3921.721,0.12507216
3926.146,0.12579802
3930.581,0.12661042
3935.027,0.12746716
3939.482,0.12818576
3943.948,0.12882805
3948.423,0.1295745
3952.909,0.1304934
3957.405,0.13155111
3961.911,0.13255822
3966.427,0.13350602
3970.954,0.13451642
3975.491,0.13552739
3980.038,0.13653982
3984.595,0.13750081
3989.163,0.13839786
3993.742,0.13933121
3998.33,0.14016509
4002.93,0.14104326
4007.54,0.14208433
4012.16,0.14313164
4016.791,0.1440881
4021.433,0.14496522
4026.086,0.14595307
4030.749,0.14704834
4035.423,0.14816134
4040.108,0.14933142
4044.804,0.15057311
4049.51,0.15186462
4054.228,0.15314948
4058.956,0.15430179
4063.695,0.15538736
4068.446,0.15659318
4073.207,0.15799899
4077.98,0.15950622
4082.764,0.1609004
4087.559,0.16215685
4092.365,0.16324469
4097.183,0.16438515
4102.012,0.16574693
4106.852,0.1671284
4111.703,0.16848613
4116.566,0.16983767
4121.441,0.17120884
4126.327,0.17260568
4131.224,0.17405182
4136.133,0.1755004
4141.054,0.17689804
4145.987,0.17836622
4150.931,0.17999939
4155.887,0.18168013
4160.854,0.18328837
4165.834,0.18490065
4170.826,0.18645249
4175.829,0.18792889
4180.844,0.18947245
4185.872,0.19128551
4190.911,0.19371558
4195.963,0.19748853
4201.026,0.20380055
4206.102,0.21331949
4211.19,0.22531649
4216.291,0.23832274
4221.404,0.25120529
4226.529,0.26321094
4231.666,0.27307131
4236.816,0.27930611
4241.979,0.2806226
4247.154,0.27585012
4252.341,0.26246153
4257.542,0.25195766
4262.754,0.25712852
4267.98,0.2708061
4273.219,0.27713494
4278.47,0.2779596
4283.734,0.27832173
4289.011,0.27945749
4294.301,0.27947417
4299.604,0.27802044
4304.92,0.27723562
4310.25,0.27520571
4315.592,0.27107244
4320.948,0.26775504
4326.317,0.26578412
4331.699,0.26366104
4337.095,0.26154862
4342.504,0.26011038
4347.926,0.25955045
4353.362,0.25973001
4358.811,0.260278
4364.275,0.26097061
4369.751,0.26172126
4375.242,0.26271862
4380.746,0.26429977
4386.264,0.26637474
4391.796,0.26858583
4397.342,0.2708072
4402.902,0.27295431
4408.476,0.27499034
4414.064,0.2771965
4419.666,0.27949034
4425.282,0.28147762
4430.913,0.28337154
4436.558,0.28541843
4442.217,0.28762041
4447.891,0.28982957
4453.579,0.29187469
4459.281,0.29401084
4464.998,0.29628684
4470.73,0.29852706
4476.477,0.30069899
4482.238,0.30282514
4488.014,0.3049114
4493.805,0.30698532
4499.611,0.30908228
4505.431,0.31131371
4511.267,0.31360734
4517.118,0.31578528
4522.984,0.31797946
4528.865,0.32012814
4534.762,0.32226925
4540.674,0.32445939
4546.601,0.32646256
4552.543,0.32853695
4558.502,0.33084664
4564.475,0.33302845
4570.465,0.33506331
4576.47,0.33715441
4582.491,0.33917175
4588.527,0.34110859
4594.58,0.34322675
4600.648,0.34550272
4606.732,0.34793892
4612.833,0.35029534
4618.949,0.35245392
4625.082,0.35471888
4631.231,0.35693839
4637.397,0.35922334
4643.578,0.36169184
4649.777,0.36404441
4655.991,0.3663947
4662.223,0.36870446
4668.471,0.37101005
4674.735,0.3736948
4681.017,0.37622571
4687.315,0.37832816
4693.63,0.38057281
4699.962,0.3829156
4706.312,0.38526577
4712.678,0.38775733
4719.062,0.39034156
4725.463,0.39301303
4731.881,0.39552053
4738.316,0.39774784
4744.769,0.3999926
4751.24,0.40239528
4757.728,0.40486234
4764.234,0.40722664
4770.758,0.40955247
4777.299,0.41218926
4783.859,0.41511091
4790.436,0.41757605
4797.032,0.41947895
4803.645,0.42152726
4810.277,0.42399268
4816.927,0.42650723
4823.596,0.42867867
4830.283,0.4308092
4836.988,0.43396359
4843.712,0.43706737
4850.455,0.43843076
4857.216,0.43975346
4863.996,0.44190655
4870.795,0.44405969
4877.613,0.44596921
4884.451,0.44782716
4891.307,0.45053879
4898.182,0.45345354
4905.077,0.45501916
4911.991,0.45629507
4918.925,0.45821077
4925.878,0.46035189
4932.851,0.46270427
4939.844,0.46492491
4946.856,0.46769657
4953.888,0.47167751
4960.941,0.47365753
4968.013,0.47352331
4975.105,0.47482972
4982.218,0.47693312
4989.351,0.47869547
4996.504,0.48087335
5003.678,0.48299389
5010.872,0.48673137
5018.087,0.49275176
5025.323,0.49482007
5032.58,0.49327518
5039.857,0.49349064
5047.156,0.49525986
5054.475,0.49733498
5061.816,0.49935758
5069.179,0.50150666
5076.562,0.50613259
5083.967,0.51056247
5091.394,0.5104554
5098.842,0.51049077
5106.312,0.51276739
5113.804,0.51496243
5121.318,0.51664104
5128.854,0.51864635
5136.412,0.52385272
5143.992,0.53195617
5151.595,0.53298016
5159.22,0.52873547
5166.868,0.52932227
5174.538,0.53206667
5182.231,0.53360929
5189.947,0.5379081
5197.686,0.54553256
5205.448,0.55166153
5213.233,0.55400026
5221.041,0.55047634
5228.873,0.55008243
5236.728,0.55478567
5244.607,0.55519373
5252.51,0.55461689
5260.436,0.55633193
5268.386,0.56050878
5276.36,0.56510318
5284.358,0.57006004
5292.381,0.57419425
5300.428,0.57208008
5308.499,0.5703378
5316.595,0.57205218
5324.715,0.57387475
5332.86,0.57621507
5341.031,0.58795884
5349.226,0.60429142
5357.446,0.59991941
5365.692,0.58902562
5373.962,0.58887009
5382.259,0.59055648
5390.581,0.59140453
5398.928,0.59454709
5407.302,0.60365639
5415.701,0.62095068
5424.127,0.62682092
5432.579,0.61454019
5441.057,0.61015117
5449.561,0.61521527
5458.092,0.6277563
5466.65,0.64175698
5475.234,0.64133521
5483.846,0.63440515
5492.484,0.62790688
5501.15,0.62899468
5509.843,0.63571063
5518.564,0.64659787
5527.312,0.65398328
5536.087,0.65729046
5544.891,0.68085944
5553.723,0.70494021
5562.582,0.67845278
5571.47,0.57887823
5580.387,0.54084888
5589.332,0.56138089
5598.305,0.57317853
5607.307,0.58477964
5616.339,0.59305095
5625.399,0.60152857
5634.489,0.61797653
5643.607,0.62989227
5652.756,0.626416
5661.934,0.6235671
5671.142,0.62928519
5680.379,0.63501221
5689.647,0.63639856
5698.945,0.64256181
5708.274,0.65881296
5717.633,0.66655934
5727.022,0.66218952
5736.443,0.66359577
5745.894,0.66635948
5755.377,0.6743578
5764.89,0.68803392
5774.436,0.68137059
5784.012,0.66815546
5793.621,0.66520804
5803.262,0.67213604
5812.934,0.69487648
5822.639,0.71361954
5832.376,0.70041381
5842.146,0.68845823
5851.948,0.6961551
5861.783,0.71025141
5871.652,0.72585384
5881.553,0.74060802
5891.488,0.73410336
5901.457,0.714472
5911.459,0.70759516
5921.495,0.72114603
5931.565,0.74554675
5941.67,0.74107497
5951.809,0.72369475
5961.982,0.72688974
5972.19,0.73573612
5982.433,0.74095099
5992.711,0.73399258
6003.025,0.72665632
6013.374,0.7284629
6023.759,0.72555662
6034.179,0.74364337
6044.636,0.77387054
6055.129,0.76802566
6065.658,0.76380866
6076.224,0.75409987
6086.826,0.73807435
6097.466,0.74955796
6108.143,0.76964644
6118.857,0.75781467
6129.609,0.74554901
6140.398,0.75273952
6151.226,0.76106211
6162.091,0.76002879
6172.996,0.76318494
6183.938,0.76751156
6194.92,0.75877795
6205.94,0.75581369
6217.0,0.7581637
6228.099,0.75828616
6239.237,0.75850985
6250.416,0.75896076
6261.635,0.76152051
6272.893,0.76339634
6284.193,0.76387899
6295.533,0.76461164
6306.914,0.76571353
6318.336,0.76889723
6329.799,0.78224772
6341.304,0.79226427
6352.851,0.78898208
6364.44,0.79316925
6376.071,0.79336008
6387.745,0.79214594
6399.461,0.81535352
6411.221,0.84079698
6423.023,0.82374966
6434.869,0.80635336
6446.759,0.80295043
6458.693,0.80784032
6470.671,0.82796522
6482.693,0.84932783
6494.76,0.83789911
6506.872,0.82405342
6519.029,0.82243751
6531.231,0.82001082
6543.48,0.82667202
6555.774,0.84040907
6568.114,0.84842372
6580.501,0.84650217
6592.934,0.8380893
6605.415,0.83491665
6617.943,0.85226958
6630.518,0.86617664
6643.141,0.84223758
6655.812,0.83061021
6668.532,0.83928011
6681.3,0.83755653
6694.117,0.83798801
6706.983,0.84848544
6719.899,0.84266751
6732.864,0.83151926
6745.879,0.83107101
6758.945,0.83865785
6772.062,0.85406966
6785.229,0.85811925
6798.448,0.84469576
6811.718,0.84243526
6825.039,0.8453234
6838.413,0.85168491
6851.84,0.86949052
6865.319,0.86476431
6878.851,0.8490432
6892.437,0.84830086
6906.076,0.84842157
6919.769,0.8442099
6933.517,0.84721769
6947.319,0.85924194
6961.176,0.862076
6975.089,0.85765614
6989.057,0.85761685
7003.081,0.85812655
7017.161,0.86185074
7031.298,0.87140571
7045.492,0.87360708
7059.743,0.86466
7074.052,0.86053188
7088.419,0.86243006
7102.845,0.86603295
7117.329,0.86863344
7131.872,0.87274524
7146.475,0.88018916
7161.137,0.8806463
7175.86,0.87533186
7190.643,0.87661555
7205.487,0.87842993
7220.393,0.87516165
7235.36,0.87540375
7250.39,0.88035612
7265.481,0.88511869
7280.636,0.88457601
7295.854,0.88246574
7311.135,0.88528703
7326.481,0.89084988
7341.891,0.89034051
7357.366,0.88679114
7372.906,0.88687197
7388.512,0.8878871
7404.184,0.88887866
7419.922,0.88982252
7435.728,0.89359647
7451.601,0.90016261
7467.541,0.90079438
7483.55,0.89692091
7499.628,0.89609116
7515.774,0.89742015
7531.99,0.89871427
7548.277,0.90059314
7564.633,0.90328766
7581.061,0.90506371
7597.56,0.9055345
7614.131,0.90539713
7630.774,0.90533043
7647.491,0.90591482
7664.28,0.90672644
7681.143,0.90776672
7698.08,0.90894429
7715.093,0.90992317
7732.18,0.91116686
7749.343,0.91254369
7766.583,0.91311819
7783.899,0.9136173
7801.292,0.91465817
7818.764,0.91561985
7836.313,0.91695995
7853.942,0.91886043
7871.649,0.92031786
7889.437,0.92119263
7907.305,0.92244603
7925.254,0.92399286
7943.285,0.9250122
7961.398,0.92586247
7979.594,0.926798
7997.872,0.92773846
8016.235,0.92899225
8034.682,0.93023311
8053.214,0.93102286
8071.832,0.93189565
8090.535,0.9331558
8109.326,0.93429793
8128.204,0.93530561
8147.169,0.93629072
8166.224,0.93706192
8185.368,0.93784321
8204.601,0.93878858
8223.925,0.93970726
8243.34,0.94039635
8262.847,0.94105567
8282.446,0.94194478
8302.139,0.94291133
8321.925,0.94372298
8341.805,0.94444148
8361.781,0.94530828
8381.852,0.94624588
8402.02,0.94717535
8422.285,0.94806172
8442.648,0.94879433
8463.109,0.94944586
8483.67,0.95018936
8504.331,0.95095354
8525.092,0.95159865
8545.955,0.9523741
8566.921,0.95316939
8587.989,0.95372696
8609.161,0.95436168
8630.437,0.95508914
8651.819,0.9557573
8673.307,0.95637953
8694.902,0.95705915
8716.604,0.95774861
8738.415,0.95824991
8760.335,0.95892515
8782.365,0.95989643
8804.507,0.96075165
8826.76,0.96143874
8849.125,0.96208617
8871.604,0.96277106
8894.198,0.96363475
8916.907,0.96463778
8939.732,0.96547802
8962.673,0.9660636
8985.733,0.96663397
9008.912,0.96719451
9032.21,0.96754697
9055.629,0.96775037
9079.17,0.96795419
9102.833,0.96817043
9126.62,0.96831419
9150.531,0.96832117
9174.568,0.96833187
9198.731,0.96836294
9223.022,0.96825678
9247.441,0.96821475
9271.99,0.96833804
9296.669,0.9683961
9321.48,0.96840101
9346.423,0.9685303
9371.5,0.96881209
9396.712,0.96909281
9422.06,0.96925829
9447.545,0.96947109
9473.167,0.96988773
9498.929,0.9704024
9524.832,0.97087232
9550.876,0.97131297
9577.062,0.97174864
9603.393,0.97221004
9629.868,0.97268024
9656.49,0.97308643
9683.259,0.97341978
9710.176,0.97364086
9737.244,0.97376762
9764.463,0.97399108
9791.834,0.97440874
9819.359,0.97482724
9847.039,0.97514912
9874.875,0.9754793
9902.869,0.97574067
9931.022,0.97585444
9959.336,0.97611338
9987.811,0.97656599
10016.449,0.97696106
10045.252,0.97726997
10074.221,0.97756429
10103.357,0.97791802
10132.662,0.97834344
10162.137,0.97879597
10191.784,0.97909461
10221.604,0.97930022
10251.6,0.97970477
10281.771,0.980245
10312.121,0.9808333
10342.65,0.98134768
10373.36,0.98166422
10404.253,0.98188697
10435.331,0.98207017
10466.594,0.98225433
10498.045,0.98248114
10529.686,0.98273665
10561.517,0.98293115
10593.542,0.98302557
10625.761,0.98309614
10658.176,0.9831753
10690.79,0.98330711
10723.604,0.98342235
10756.619,0.98354575
10789.839,0.98372232
10823.264,0.98386109
10856.896,0.98405913
10890.738,0.98422108
10924.791,0.98421574
10959.058,0.98434553
10993.541,0.98466906
11028.24,0.98479382
11063.16,0.98474772
11098.301,0.98473687
11133.665,0.9846823
11169.256,0.98474651
11205.075,0.98501081
11241.124,0.98537937
11277.405,0.98568966
11313.921,0.98563955
11350.675,0.98543781
11387.667,0.98541173
11424.901,0.98552772
11462.38,0.98569371
11500.105,0.98579292
11538.079,0.98572728
11576.304,0.98561472
11614.783,0.9855973
11653.518,0.98559682
11692.513,0.98561201
11731.769,0.98570034
11771.29,0.98587151
11811.077,0.98586886
11851.134,0.98583504
11891.464,0.98615795
11932.068,0.98644649
11972.951,0.98649755
12014.114,0.98649036
12055.562,0.98665973
12097.296,0.98692966
12139.32,0.98698776
12181.636,0.98693771
12224.249,0.9868707
12267.16,0.98675592
12310.373,0.98668487
12353.892,0.98655791
12397.719,0.98657713
12441.859,0.98682801
12486.313,0.98686038
12531.086,0.98684247
12576.18,0.98688212
12621.601,0.98676374
12667.35,0.98663708
12713.432,0.98669572
12759.85,0.98683779
12806.608,0.9869696
12853.71,0.98710026
12901.159,0.98728903
12948.96,0.98752789
12997.116,0.98761011
13045.631,0.98751972
13094.51,0.98738464
13143.756,0.98747656
13193.373,0.9877603
13243.366,0.98785579
13293.74,0.98790168
13344.497,0.98799261
13395.644,0.98798391
13447.183,0.98800404
13499.121,0.98793179
13551.461,0.98761857
13604.208,0.98747344
13657.367,0.98752971
13710.943,0.9873653
13764.941,0.98706121
13819.365,0.98673799
13874.221,0.98612243
13929.515,0.98527996
13985.25,0.98452115
14041.433,0.98387109
14098.068,0.98329224
14155.163,0.98259847
14212.721,0.9818334
14270.749,0.98117807
14329.252,0.98036229
14388.237,0.97933985
14447.709,0.97806575
14507.674,0.97640976
14568.139,0.97419172
14629.109,0.97170485
14690.592,0.9690181
14752.594,0.96508709
14815.121,0.96074321
14878.179,0.95860994
14941.777,0.95503693
15005.92,0.9456479
15070.616,0.93571492
15135.871,0.92536492
15201.695,0.91180518
15268.092,0.89549467
15335.072,0.87617233
15402.642,0.85251035
15470.81,0.82448637
15539.583,0.7927984
15608.97,0.75521108
15678.979,0.71429892
15749.619,0.67263641
15820.897,0.63006211
15892.824,0.58828085
15965.407,0.54968953
