Database of Origin,University of Winnipeg Spectrophotometer Facility
Sample Description,"HOSERLab master pyroxenes, FTIR data"
Date Added,2016-12-14 03:34:49.833162

Data ID,FTIR_PYX_11         
Sample ID,PYX110
Mineral Name,Orthopyroxene
Grain Size,<45 um
Viewing Geometry,"i=30, e=0"
Material Class,Inosilicate

Wavelength
2000.56,0.45454174
2001.142,0.45469241
2001.725,0.454838
2002.307,0.45501054
2002.891,0.45519534
2003.474,0.45555478
2004.058,0.45617184
2004.643,0.45678016
2005.227,0.45711782
2005.812,0.45729483
2006.397,0.4575053
2006.983,0.45772946
2007.569,0.45796737
2008.155,0.45837486
2008.742,0.45893978
2009.329,0.45942271
2009.916,0.45973297
2010.504,0.4600014
2011.092,0.46027978
2011.68,0.46054115
2012.269,0.46087692
2012.858,0.46135798
2013.447,0.46182502
2014.037,0.46211964
2014.627,0.46234374
2015.217,0.46267602
2015.808,0.46312921
2016.399,0.46363863
2016.99,0.46416391
2017.582,0.46463782
2018.174,0.46499715
2018.766,0.46528887
2019.359,0.46559243
2019.952,0.46590772
2020.546,0.46620866
2021.139,0.46651098
2021.733,0.46681249
2022.328,0.4670858
2022.923,0.46733003
2023.518,0.46754671
2024.113,0.46772028
2024.709,0.46790887
2025.305,0.46822482
2025.902,0.46867962
2026.499,0.46915861
2027.096,0.46957818
2027.693,0.46992291
2028.291,0.47018531
2028.89,0.47040106
2029.488,0.47067239
2030.087,0.47102546
2030.686,0.47137182
2031.286,0.47166464
2031.886,0.47197124
2032.486,0.472354
2033.087,0.4728302
2033.688,0.47340872
2034.289,0.4740433
2034.891,0.47461561
2035.493,0.47505892
2036.096,0.47540056
2036.698,0.47566158
2037.302,0.47586483
2037.905,0.47611308
2038.509,0.47648277
2039.113,0.47690658
2039.718,0.47729632
2040.322,0.47767094
2040.928,0.47804309
2041.533,0.47836845
2042.139,0.47868261
2042.746,0.4790924
2043.352,0.47959867
2043.959,0.48011371
2044.567,0.48059235
2045.174,0.48099333
2045.782,0.48123329
2046.391,0.48135984
2047.0,0.48155997
2047.609,0.48188291
2048.218,0.48217268
2048.828,0.48237663
2049.438,0.48265175
2050.049,0.48311858
2050.66,0.48373354
2051.271,0.48440195
2051.883,0.48501172
2052.495,0.48543801
2053.107,0.48567666
2053.72,0.48588165
2054.333,0.48616215
2054.947,0.48649805
2055.56,0.48687112
2056.175,0.48729677
2056.789,0.48772998
2057.404,0.48812875
2058.019,0.48854599
2058.635,0.4890281
2059.251,0.48952196
2059.867,0.48997996
2060.484,0.49039786
2061.101,0.49072663
2061.718,0.49091872
2062.336,0.49105572
2062.954,0.4912591
2063.573,0.49156253
2064.192,0.49199252
2064.811,0.4926124
2065.431,0.49334142
2066.051,0.49396468
2066.671,0.49440446
2067.292,0.49476158
2067.913,0.4950709
2068.534,0.495303
2069.156,0.49555287
2069.778,0.49593914
2070.401,0.49639246
2071.024,0.4968213
2071.647,0.4973199
2072.271,0.4979626
2072.895,0.4986011
2073.519,0.49909366
2074.144,0.49949186
2074.769,0.49983993
2075.395,0.50007381
2076.02,0.50023411
2076.647,0.500468
2077.273,0.50076343
2077.9,0.50099855
2078.528,0.50125695
2079.155,0.50174808
2079.784,0.50246802
2080.412,0.50322797
2081.041,0.50392754
2081.67,0.50452929
2082.3,0.50493668
2082.93,0.50514585
2083.56,0.50535378
2084.191,0.50570422
2084.822,0.50613854
2085.454,0.50659316
2086.085,0.50710863
2086.718,0.50767507
2087.35,0.50821739
2087.983,0.50874293
2088.617,0.50929195
2089.251,0.50980178
2089.885,0.51022433
2090.519,0.51063003
2091.154,0.51103499
2091.789,0.51133756
2092.425,0.51156676
2093.061,0.51191616
2093.697,0.51243662
2094.334,0.51297476
2094.971,0.5134546
2095.609,0.51391901
2096.247,0.51435689
2096.885,0.51476603
2097.524,0.51526105
2098.163,0.51585709
2098.803,0.516376
2099.443,0.51678443
2100.083,0.51729685
2100.723,0.51796147
2101.364,0.51854275
2102.006,0.51895593
2102.648,0.51939113
2103.29,0.51993469
2103.932,0.52050755
2104.575,0.52113119
2105.219,0.52182521
2105.862,0.52236777
2106.506,0.52259593
2107.151,0.52274099
2107.796,0.52308208
2108.441,0.52353717
2109.087,0.52394338
2109.733,0.52439251
2110.379,0.52499604
2111.026,0.52563421
2111.673,0.52619177
2112.321,0.52670147
2112.969,0.52714161
2113.617,0.52743051
2114.266,0.52767171
2114.915,0.52807461
2115.565,0.52863845
2116.215,0.52918413
2116.865,0.5296731
2117.516,0.53024351
2118.167,0.53095456
2118.819,0.53169301
2119.471,0.53232402
2120.123,0.53280332
2120.776,0.5331305
2121.429,0.53330221
2122.082,0.53337702
2122.736,0.53352177
2123.391,0.53386408
2124.045,0.53433506
2124.7,0.53478662
2125.356,0.53518918
2126.012,0.53555656
2126.668,0.53582463
2127.325,0.53602884
2127.982,0.53639696
2128.64,0.53701797
2129.297,0.53767498
2129.956,0.5382317
2130.614,0.53884478
2131.274,0.53957657
2131.933,0.54021919
2132.593,0.54070557
2133.253,0.54122889
2133.914,0.5418127
2134.575,0.54226828
2135.237,0.54261837
2135.899,0.54306442
2136.561,0.54358146
2137.224,0.5440088
2137.887,0.54441791
2138.55,0.54492049
2139.214,0.54536748
2139.879,0.54564031
2140.544,0.54594274
2141.209,0.54645489
2141.874,0.54703559
2142.54,0.54751757
2143.207,0.54794668
2143.873,0.54836481
2144.541,0.5487415
2145.208,0.54917438
2145.876,0.54979042
2146.545,0.55044227
2147.214,0.55086692
2147.883,0.55106736
2148.553,0.55126819
2149.223,0.551605
2149.893,0.55206545
2150.564,0.55258211
2151.235,0.55303728
2151.907,0.55333904
2152.579,0.55356865
2153.252,0.55389841
2153.925,0.55437731
2154.598,0.55493815
2155.272,0.55553855
2155.946,0.5561407
2156.621,0.55664998
2157.296,0.55700887
2157.972,0.5572775
2158.647,0.55756043
2159.324,0.55795811
2160.001,0.55856859
2160.678,0.55938921
2161.355,0.56023743
2162.033,0.56092147
2162.712,0.5614437
2163.39,0.56191607
2164.07,0.56237185
2164.749,0.56279188
2165.429,0.56320044
2166.11,0.56359929
2166.791,0.56391465
2167.472,0.56413329
2168.154,0.56437558
2168.836,0.56472883
2169.519,0.56514175
2170.202,0.56556568
2170.885,0.56602403
2171.569,0.56648679
2172.254,0.56686406
2172.938,0.5671889
2173.624,0.56760837
2174.309,0.56814758
2174.995,0.5686857
2175.682,0.56917629
2176.368,0.56969737
2177.056,0.5702784
2177.743,0.57085834
2178.432,0.57139116
2179.12,0.5718298
2179.809,0.57208405
2180.499,0.57216599
2181.189,0.57227381
2181.879,0.57260701
2182.57,0.57317204
2183.261,0.5738382
2183.952,0.5744655
2184.644,0.57494176
2185.337,0.57525451
2186.03,0.57553379
2186.723,0.57592283
2187.417,0.57642647
2188.111,0.57696535
2188.806,0.57748006
2189.501,0.57792573
2190.196,0.57827933
2190.892,0.57859468
2191.589,0.5789415
2192.285,0.57930266
2192.983,0.57963271
2193.68,0.57995885
2194.379,0.58032471
2195.077,0.58073403
2195.776,0.58121897
2196.476,0.58183204
2197.175,0.58253572
2197.876,0.58324663
2198.577,0.58395542
2199.278,0.58464873
2199.979,0.58519252
2200.682,0.58549131
2201.384,0.58565419
2202.087,0.58584417
2202.79,0.58608652
2203.494,0.58635648
2204.199,0.58671039
2204.903,0.58719373
2205.609,0.58772704
2206.314,0.5882082
2207.02,0.58863707
2207.727,0.58907353
2208.434,0.58953143
2209.141,0.58997703
2209.849,0.59038131
2210.557,0.59073387
2211.266,0.59102609
2211.975,0.59127802
2212.685,0.59158765
2213.395,0.59204514
2214.106,0.59258612
2214.817,0.59304783
2215.528,0.59338463
2216.24,0.59365637
2216.952,0.59386263
2217.665,0.5940134
2218.379,0.59427072
2219.092,0.59473524
2219.806,0.59521797
2220.521,0.595517
2221.236,0.59570368
2221.952,0.59587067
2222.668,0.59590759
2223.384,0.59581804
2224.101,0.59585675
2224.818,0.59612302
2225.536,0.59642548
2226.254,0.59669074
2226.973,0.59704378
2227.692,0.59747558
2228.412,0.59789272
2229.132,0.59837544
2229.853,0.59893078
2230.574,0.59925637
2231.295,0.5991827
2232.017,0.5990148
2232.74,0.59907054
2233.462,0.59932917
2234.186,0.59972481
2234.91,0.60027647
2235.634,0.60082106
2236.359,0.60116879
2237.084,0.60148736
2237.809,0.60203217
2238.536,0.6026795
2239.262,0.6031786
2239.989,0.60353299
2240.717,0.6037878
2241.445,0.60386627
2242.173,0.60386351
2242.902,0.60399812
2243.631,0.60421874
2244.361,0.60436991
2245.092,0.60460526
2245.822,0.60507758
2246.554,0.6055208
2247.285,0.60567349
2248.017,0.60572837
2248.75,0.60590325
2249.483,0.60608208
2250.217,0.60621076
2250.951,0.60646438
2251.686,0.60682828
2252.421,0.60711699
2253.156,0.60742986
2253.892,0.60795213
2254.628,0.60845209
2255.365,0.60861008
2256.103,0.60859371
2256.841,0.60873998
2257.579,0.60901319
2258.318,0.60925699
2259.057,0.60954163
2259.797,0.60987126
2260.537,0.61002169
2261.278,0.60996262
2262.019,0.60997651
2262.761,0.61018628
2263.503,0.61041297
2264.246,0.61056132
2264.989,0.61070753
2265.732,0.61080812
2266.477,0.61073012
2267.221,0.61054668
2267.966,0.61046712
2268.712,0.61053749
2269.458,0.61064477
2270.204,0.61074372
2270.951,0.61087486
2271.699,0.61104381
2272.447,0.61122144
2273.195,0.61139647
2273.944,0.61153527
2274.694,0.61156882
2275.444,0.61149926
2276.194,0.6114458
2276.945,0.61148701
2277.696,0.61150836
2278.448,0.61135034
2279.201,0.61106016
2279.954,0.6108371
2280.707,0.61072685
2281.461,0.61054087
2282.215,0.61010591
2282.97,0.6094401
2283.725,0.60864831
2284.481,0.60778572
2285.237,0.60689046
2285.994,0.60606166
2286.752,0.60543991
2287.509,0.60513069
2288.268,0.60513425
2289.026,0.60534735
2289.786,0.60566551
2290.545,0.60610147
2291.306,0.60675783
2292.067,0.60768428
2292.828,0.60877486
2293.59,0.60979623
2294.352,0.61053472
2295.115,0.61093813
2295.878,0.61108361
2296.642,0.61103472
2297.406,0.61083072
2298.171,0.61058013
2298.936,0.6104021
2299.702,0.61027029
2300.468,0.61006889
2301.235,0.60975921
2302.002,0.60933109
2302.77,0.60869173
2303.539,0.60780923
2304.307,0.60686403
2305.077,0.60605104
2305.847,0.60534664
2306.617,0.60463601
2307.388,0.60391567
2308.159,0.60320185
2308.931,0.60244106
2309.703,0.60167275
2310.476,0.60110989
2311.25,0.60091869
2312.024,0.60110639
2312.798,0.60171858
2313.573,0.60289849
2314.348,0.60463385
2315.124,0.60661972
2315.901,0.60850719
2316.678,0.61013288
2317.455,0.61143616
2318.234,0.61235153
2319.012,0.61292445
2319.791,0.61335501
2320.571,0.61380245
2321.351,0.61429757
2322.131,0.6149102
2322.913,0.61577542
2323.694,0.61685331
2324.476,0.61791654
2325.259,0.61887757
2326.042,0.61986545
2326.826,0.62090247
2327.61,0.62182027
2328.395,0.62255834
2329.18,0.62322949
2329.966,0.62384891
2330.753,0.62431806
2331.54,0.62467438
2332.327,0.62505372
2333.115,0.62547118
2333.903,0.62588984
2334.692,0.62636155
2335.482,0.62686151
2336.272,0.6272122
2337.062,0.62735802
2337.854,0.6274798
2338.645,0.62771548
2339.437,0.62802497
2340.23,0.62837001
2341.023,0.62876752
2341.817,0.62918276
2342.611,0.62958241
2343.406,0.63000166
2344.201,0.63042112
2344.997,0.63075148
2345.794,0.63099625
2346.591,0.63121581
2347.388,0.63137646
2348.186,0.63147757
2348.985,0.63166889
2349.784,0.631993
2350.583,0.63226253
2351.384,0.63238223
2352.184,0.6324799
2352.986,0.63259404
2353.787,0.63264551
2354.59,0.63272415
2355.393,0.63295121
2356.196,0.63316808
2357.0,0.63321957
2357.804,0.6333084
2358.609,0.63360703
2359.415,0.63389342
2360.221,0.63400498
2361.028,0.63416898
2361.835,0.63451132
2362.643,0.63478801
2363.451,0.63489217
2364.26,0.63502095
2365.069,0.63518725
2365.879,0.63517656
2366.69,0.63504279
2367.501,0.63502582
2368.312,0.63505062
2369.125,0.63487035
2369.937,0.63454232
2370.751,0.63426425
2371.564,0.63401104
2372.379,0.6337298
2373.194,0.63356334
2374.009,0.63356034
2374.825,0.63352193
2375.642,0.6333727
2376.459,0.63329169
2377.276,0.63335085
2378.095,0.63338312
2378.913,0.633286
2379.733,0.63313166
2380.553,0.63296933
2381.373,0.6327869
2382.194,0.63264651
2383.016,0.63265103
2383.838,0.63280834
2384.661,0.63304121
2385.484,0.63327651
2386.308,0.63345647
2387.132,0.63352647
2387.957,0.63344491
2388.783,0.63321189
2389.609,0.6329233
2390.435,0.63276583
2391.263,0.63287314
2392.09,0.63319257
2392.919,0.63357037
2393.748,0.6339256
2394.577,0.63427521
2395.407,0.63465018
2396.238,0.63507887
2397.069,0.63559689
2397.901,0.63617663
2398.733,0.63673979
2399.566,0.63728724
2400.399,0.63790934
2401.233,0.63859779
2402.068,0.63920285
2402.903,0.63962759
2403.739,0.63992605
2404.575,0.64014226
2405.412,0.64024772
2406.25,0.64030736
2407.088,0.64048638
2407.926,0.640783
2408.766,0.64097794
2409.606,0.64096128
2410.446,0.64087994
2411.287,0.6408785
2412.128,0.64095094
2412.971,0.64110134
2413.813,0.64137475
2414.657,0.64168301
2415.5,0.6418844
2416.345,0.64202311
2417.19,0.64220719
2418.036,0.64232441
2418.882,0.64218429
2419.729,0.6418567
2420.576,0.64155503
2421.424,0.64133373
2422.272,0.64116011
2423.122,0.64110524
2423.971,0.64120603
2424.822,0.64133938
2425.673,0.64143316
2426.524,0.6416062
2427.376,0.64192391
2428.229,0.64224695
2429.082,0.64244508
2429.936,0.64254292
2430.791,0.64256621
2431.646,0.64246374
2432.501,0.64227266
2433.358,0.64215945
2434.214,0.64220706
2435.072,0.64230138
2435.93,0.64230564
2436.789,0.64221368
2437.648,0.64208091
2438.508,0.64193122
2439.368,0.64182777
2440.229,0.64188369
2441.091,0.64209646
2441.953,0.64229521
2442.816,0.64236098
2443.679,0.64234737
2444.543,0.64230688
2445.408,0.64220492
2446.273,0.6420874
2447.139,0.64209379
2448.006,0.64222134
2448.873,0.64232932
2449.74,0.64237209
2450.609,0.64238864
2451.478,0.64233906
2452.347,0.64221405
2453.217,0.64215958
2454.088,0.64226623
2454.959,0.64242043
2455.831,0.64253622
2456.704,0.64264161
2457.577,0.64265633
2458.451,0.64244945
2459.325,0.64213123
2460.2,0.64190399
2461.076,0.64175056
2461.952,0.64163969
2462.829,0.64174999
2463.707,0.6420993
2464.585,0.642355
2465.464,0.6423448
2466.343,0.64228131
2467.223,0.64228556
2468.104,0.64226893
2468.985,0.64234341
2469.867,0.64268713
2470.749,0.64308902
2471.632,0.64329556
2472.516,0.64352786
2473.4,0.64399914
2474.285,0.64441651
2475.171,0.64455676
2476.057,0.64469636
2476.944,0.6449666
2477.832,0.64504055
2478.72,0.64484875
2479.608,0.6447665
2480.498,0.64489077
2481.388,0.64497357
2482.278,0.64508326
2483.17,0.64543833
2484.062,0.64576796
2484.954,0.64569499
2485.847,0.64542816
2486.741,0.64533538
2487.636,0.64534519
2488.531,0.64534986
2489.427,0.64555184
2490.323,0.64589712
2491.22,0.64589023
2492.118,0.6453754
2493.016,0.64480474
2493.915,0.64452815
2494.814,0.64448664
2495.715,0.64461639
2496.615,0.64489404
2497.517,0.6450719
2498.419,0.64496174
2499.322,0.64479747
2500.225,0.64485442
2501.129,0.64503369
2502.034,0.64516432
2502.939,0.64530451
2503.845,0.64544793
2504.752,0.64541519
2505.659,0.64524467
2506.567,0.64522031
2507.476,0.6453861
2508.385,0.64551402
2509.295,0.64554878
2510.206,0.64561545
2511.117,0.6456666
2512.029,0.64558731
2512.942,0.64548923
2513.855,0.64547701
2514.769,0.64538364
2515.683,0.64516056
2516.598,0.64510842
2517.514,0.64534016
2518.431,0.64553952
2519.348,0.64561316
2520.266,0.64588872
2521.184,0.64637047
2522.103,0.64658584
2523.023,0.64643354
2523.944,0.64629766
2524.865,0.64617493
2525.787,0.64574726
2526.709,0.645323
2527.632,0.64548106
2528.556,0.64595118
2529.48,0.64604448
2530.406,0.6458947
2531.331,0.64601594
2532.258,0.64616773
2533.185,0.64596543
2534.113,0.64587331
2535.041,0.64624173
2535.971,0.64644977
2536.9,0.64617452
2537.831,0.6461967
2538.762,0.64681854
2539.694,0.64710599
2540.627,0.64654426
2541.56,0.64594001
2542.494,0.64589365
2543.428,0.64596257
2544.364,0.64603427
2545.3,0.64660723
2546.236,0.64731112
2547.174,0.64715818
2548.112,0.64648778
2549.05,0.64656469
2549.99,0.64722168
2550.93,0.64712703
2551.87,0.6463283
2552.812,0.64616557
2553.754,0.64670541
2554.697,0.64685872
2555.64,0.64671447
2556.585,0.64714715
2557.529,0.64774867
2558.475,0.6473702
2559.421,0.64637855
2560.368,0.64595903
2561.316,0.64559529
2562.264,0.64408269
2563.213,0.64271713
2564.163,0.64325869
2565.113,0.64465284
2566.065,0.64526644
2567.016,0.64573243
2567.969,0.64682134
2568.922,0.64725816
2569.876,0.64625191
2570.831,0.6457145
2571.786,0.64656221
2572.742,0.64670422
2573.699,0.64519717
2574.656,0.64442321
2575.615,0.64525351
2576.573,0.64550796
2577.533,0.6448531
2578.493,0.64547975
2579.454,0.64705537
2580.416,0.64693852
2581.378,0.64535582
2582.342,0.64501333
2583.305,0.6456605
2584.27,0.64498431
2585.235,0.64418958
2586.201,0.64525995
2587.168,0.64639551
2588.135,0.64552812
2589.103,0.64491857
2590.072,0.64649677
2591.042,0.64835673
2592.012,0.64875886
2592.983,0.64898303
2593.955,0.64928966
2594.927,0.64717204
2595.9,0.64397845
2596.874,0.64397693
2597.849,0.64630609
2598.824,0.64763213
2599.8,0.6475763
2600.777,0.6478401
2601.755,0.64825561
2602.733,0.64740672
2603.712,0.64619377
2604.692,0.64617373
2605.672,0.6463201
2606.653,0.64558328
2607.635,0.64544815
2608.618,0.64660961
2609.601,0.64755218
2610.585,0.64759689
2611.57,0.64783996
2612.556,0.64861635
2613.542,0.64897988
2614.529,0.6486409
2615.517,0.64810264
2616.505,0.64738827
2617.495,0.64648317
2618.485,0.64606547
2619.475,0.64632413
2620.467,0.64655596
2621.459,0.64669931
2622.452,0.64732458
2623.446,0.64824607
2624.44,0.64867471
2625.435,0.6483904
2626.431,0.64782841
2627.428,0.64737989
2628.426,0.6472332
2629.424,0.6473857
2630.423,0.64742176
2631.423,0.64700689
2632.423,0.64662388
2633.424,0.64677342
2634.426,0.64721614
2635.429,0.64760279
2636.432,0.64808238
2637.437,0.64870601
2638.442,0.64907448
2639.447,0.64894138
2640.454,0.64856889
2641.461,0.64826292
2642.469,0.64802731
2643.478,0.64778409
2644.488,0.64749881
2645.498,0.647183
2646.509,0.64698126
2647.521,0.64710291
2648.534,0.64759686
2649.547,0.64828296
2650.561,0.64876724
2651.576,0.64860658
2652.592,0.64787
2653.609,0.64720174
2654.626,0.64690372
2655.644,0.64664863
2656.663,0.64638128
2657.682,0.64633678
2658.703,0.64614415
2659.724,0.64526013
2660.746,0.64438043
2661.768,0.64462496
2662.792,0.64552007
2663.816,0.64563712
2664.841,0.644738
2665.867,0.64373263
2666.894,0.6429284
2667.921,0.64220321
2668.949,0.64193057
2669.978,0.64166017
2671.008,0.64020483
2672.038,0.63832079
2673.07,0.63796103
2674.102,0.638797
2675.135,0.63867797
2676.168,0.63668256
2677.203,0.63415336
2678.238,0.63212919
2679.274,0.63026432
2680.311,0.6287276
2681.349,0.62772906
2682.387,0.62617961
2683.426,0.62302146
2684.467,0.61895987
2685.507,0.61514603
2686.549,0.61133527
2687.591,0.6070271
2688.635,0.60276778
2689.679,0.59889918
2690.724,0.59472183
2691.769,0.5895527
2692.816,0.58324433
2693.863,0.57545282
2694.911,0.56598496
2695.96,0.55600047
2697.01,0.54687691
2698.06,0.53841979
2699.112,0.52950181
2700.164,0.51943789
2701.217,0.50832953
2702.27,0.49678691
2703.325,0.48565029
2704.38,0.47557389
2705.437,0.46676272
2706.494,0.459268
2707.552,0.45322688
2708.61,0.44839437
2709.67,0.44364141
2710.73,0.43778756
2711.791,0.43113528
2712.853,0.42493574
2713.916,0.41914199
2714.98,0.41191151
2716.044,0.40091783
2717.109,0.38521078
2718.175,0.36692565
2719.242,0.35182176
2720.31,0.34664952
2721.379,0.35316933
2722.448,0.3660083
2723.518,0.37853272
2724.589,0.38760714
2725.661,0.3927825
2726.734,0.39442852
2727.808,0.39311141
2728.882,0.38954091
2729.958,0.38489002
2731.034,0.38127496
2732.111,0.38118374
2733.188,0.38547806
2734.267,0.39208391
2735.347,0.39764492
2736.427,0.40079581
2737.508,0.40231977
2738.59,0.40286282
2739.673,0.40241247
2740.757,0.40132732
2741.841,0.40000686
2742.927,0.39837032
2744.013,0.39684295
2745.1,0.39634166
2746.188,0.39681587
2747.277,0.39717414
2748.367,0.39697415
2749.457,0.39687093
2750.549,0.39702538
2751.641,0.39685059
2752.734,0.39643425
2753.828,0.39634702
2754.923,0.39601473
2756.019,0.39449519
2757.115,0.39296585
2758.213,0.39289217
2759.311,0.39342838
2760.41,0.39318034
2761.51,0.39226564
2762.611,0.3914552
2763.713,0.39062395
2764.816,0.38955473
2765.919,0.38905569
2767.024,0.38943986
2768.129,0.38972058
2769.235,0.38924955
2770.342,0.38869082
2771.45,0.38848131
2772.559,0.3881515
2773.669,0.38773195
2774.779,0.38788341
2775.891,0.38844154
2777.003,0.38853978
2778.116,0.388096
2779.23,0.38782819
2780.345,0.3878314
2781.461,0.38758449
2782.578,0.38718942
2783.696,0.38715725
2784.814,0.38724622
2785.934,0.38676845
2787.054,0.38585623
2788.175,0.38543051
2789.297,0.38581888
2790.42,0.38646801
2791.544,0.38698401
2792.669,0.38734958
2793.795,0.38747796
2794.922,0.38729874
2796.049,0.38711969
2797.178,0.38729268
2798.307,0.38761741
2799.437,0.38757626
2800.568,0.38702165
2801.7,0.38620868
2802.833,0.38538577
2803.967,0.38483561
2805.102,0.38502843
2806.238,0.38604294
2807.374,0.38722358
2808.512,0.38790532
2809.65,0.38810457
2810.789,0.38818588
2811.93,0.38819729
2813.071,0.38800233
2814.213,0.38776149
2815.356,0.38774849
2816.5,0.38789598
2817.645,0.38793789
2818.791,0.38781409
2819.937,0.38762978
2821.085,0.38746519
2822.233,0.38740601
2823.383,0.38754349
2824.533,0.38782916
2825.685,0.38808719
2826.837,0.38815377
2827.99,0.3879809
2829.144,0.38767134
2830.299,0.38738534
2831.455,0.38713238
2832.612,0.38679087
2833.77,0.38637832
2834.929,0.38606032
2836.089,0.38583312
2837.25,0.3855704
2838.411,0.3853684
2839.574,0.38537406
2840.737,0.3853816
2841.902,0.38515928
2843.067,0.38490292
2844.234,0.38482786
2845.401,0.38469582
2846.569,0.38431387
2847.739,0.38402733
2848.909,0.3841279
2850.08,0.3843235
2851.252,0.38433894
2852.425,0.3843482
2853.599,0.38434707
2854.774,0.38396702
2855.95,0.38331345
2857.127,0.38306418
2858.305,0.38339801
2859.484,0.38379559
2860.664,0.38399456
2861.844,0.3842014
2863.026,0.38435097
2864.209,0.38410417
2865.392,0.38356016
2866.577,0.38313305
2867.763,0.38283306
2868.949,0.38240951
2870.137,0.38198244
2871.325,0.38183314
2872.515,0.3818264
2873.705,0.38166577
2874.897,0.38145042
2876.089,0.38140229
2877.283,0.38138073
2878.477,0.38118283
2879.673,0.38100479
2880.869,0.38109463
2882.066,0.38123085
2883.265,0.38101887
2884.464,0.38050883
2885.664,0.38008171
2886.866,0.37991116
2888.068,0.37991411
2889.271,0.38005612
2890.476,0.38028878
2891.681,0.38034342
2892.887,0.38002008
2894.095,0.37955928
2895.303,0.37931858
2896.512,0.3792411
2897.723,0.37904608
2898.934,0.37874898
2900.146,0.37855579
2901.36,0.37844032
2902.574,0.37825804
2903.789,0.37809695
2905.006,0.37807352
2906.223,0.3780294
2907.441,0.37781655
2908.661,0.37762107
2909.881,0.37763042
2911.103,0.3776814
2912.325,0.37759178
2913.549,0.37753601
2914.773,0.3777217
2915.999,0.37798739
2917.225,0.37804685
2918.453,0.37788885
2919.681,0.37762806
2920.911,0.37723607
2922.142,0.37669385
2923.373,0.37617638
2924.606,0.37583134
2925.84,0.37558231
2927.075,0.37533057
2928.31,0.37513986
2929.547,0.37503724
2930.785,0.37489897
2932.024,0.37470754
2933.264,0.37466821
2934.505,0.37487213
2935.747,0.37510687
2936.99,0.37517663
2938.234,0.37515369
2939.479,0.37512343
2940.726,0.37499501
2941.973,0.37476785
2943.221,0.37470322
2944.471,0.37500245
2945.721,0.37551815
2946.973,0.37593284
2948.225,0.37602847
2949.479,0.37575135
2950.733,0.37525352
2951.989,0.3748948
2953.246,0.374951
2954.504,0.37530091
2955.763,0.37558258
2957.023,0.37562704
2958.284,0.37554493
2959.546,0.37548433
2960.809,0.37549417
2962.073,0.37558263
2963.339,0.37575373
2964.605,0.37599156
2965.873,0.37626012
2967.141,0.37650135
2968.411,0.37665117
2969.681,0.37671627
2970.953,0.37680651
2972.226,0.3770525
2973.5,0.37751045
2974.775,0.37811582
2976.051,0.37867139
2977.328,0.37895317
2978.607,0.37893233
2979.886,0.37882109
2981.167,0.37881618
2982.448,0.37891861
2983.731,0.37906202
2985.015,0.37925289
2986.3,0.37950248
2987.586,0.37979291
2988.873,0.38016766
2990.161,0.38066319
2991.45,0.38112794
2992.74,0.38133005
2994.032,0.38127703
2995.324,0.38122838
2996.618,0.38138368
2997.913,0.38174693
2999.209,0.38227387
3000.506,0.38291813
3001.804,0.38352444
3003.103,0.38389998
3004.404,0.38403316
3005.705,0.38408458
3007.008,0.38416404
3008.312,0.38428196
3009.616,0.38449888
3010.922,0.38490534
3012.23,0.38543722
3013.538,0.38591167
3014.847,0.38626434
3016.158,0.38655168
3017.469,0.38674386
3018.782,0.38676756
3020.096,0.38673652
3021.411,0.38686636
3022.727,0.38717414
3024.044,0.3875197
3025.363,0.38789061
3026.683,0.38840046
3028.003,0.38907391
3029.325,0.389866
3030.648,0.39074816
3031.972,0.39156133
3033.298,0.39198636
3034.624,0.39190012
3035.952,0.39157424
3037.281,0.39134018
3038.611,0.39128486
3039.942,0.39139645
3041.274,0.3917169
3042.607,0.39220072
3043.942,0.39267004
3045.278,0.39301356
3046.615,0.39324566
3047.953,0.39338159
3049.292,0.39344637
3050.632,0.39354789
3051.974,0.3937677
3053.317,0.39405064
3054.661,0.39430703
3056.006,0.3945328
3057.352,0.39477641
3058.7,0.39509392
3060.048,0.3955353
3061.398,0.39607602
3062.749,0.39660652
3064.101,0.39704636
3065.455,0.39736676
3066.809,0.39750471
3068.165,0.39744126
3069.522,0.39734571
3070.88,0.39742433
3072.239,0.39768249
3073.6,0.39803538
3074.962,0.39850621
3076.325,0.39909365
3077.689,0.3996397
3079.054,0.40003687
3080.421,0.40035696
3081.788,0.40063171
3083.157,0.40080501
3084.527,0.4009774
3085.899,0.40133997
3087.271,0.40179853
3088.645,0.40204061
3090.02,0.40200225
3091.396,0.40191806
3092.774,0.40193435
3094.153,0.40204976
3095.532,0.40234045
3096.914,0.40287803
3098.296,0.4035157
3099.679,0.40405127
3101.064,0.40445229
3102.45,0.40472246
3103.837,0.40478639
3105.226,0.40471733
3106.616,0.40480111
3108.007,0.40517249
3109.399,0.40564914
3110.792,0.40605829
3112.187,0.40645158
3113.583,0.40689232
3114.98,0.40730064
3116.378,0.40760767
3117.778,0.40785629
3119.179,0.40810163
3120.581,0.40838001
3121.985,0.40876672
3123.389,0.40930979
3124.795,0.40992667
3126.202,0.41048904
3127.611,0.4109594
3129.02,0.41137828
3130.431,0.41177571
3131.844,0.4121612
3133.257,0.41254095
3134.672,0.41291576
3136.088,0.41328055
3137.505,0.41363278
3138.924,0.41396762
3140.344,0.41430834
3141.765,0.41472561
3143.187,0.41526317
3144.611,0.41587532
3146.036,0.41650967
3147.462,0.41717763
3148.89,0.41785044
3150.319,0.41841447
3151.749,0.41882324
3153.18,0.41916365
3154.613,0.41949848
3156.047,0.41981624
3157.482,0.4201797
3158.919,0.42070089
3160.357,0.42132544
3161.796,0.42188239
3163.236,0.42236875
3164.678,0.42292505
3166.121,0.42354271
3167.566,0.42407609
3169.011,0.42450109
3170.458,0.42490509
3171.907,0.42529921
3173.356,0.42568905
3174.807,0.42620788
3176.26,0.42695316
3177.713,0.42781808
3179.168,0.42865276
3180.624,0.42939434
3182.082,0.42993008
3183.541,0.43011479
3185.001,0.4300597
3186.463,0.43012768
3187.926,0.4305228
3189.39,0.43113772
3190.856,0.43183721
3192.323,0.43259077
3193.791,0.43329203
3195.26,0.43375509
3196.731,0.43395199
3198.204,0.43404997
3199.677,0.43421549
3201.152,0.43455119
3202.629,0.43512084
3204.106,0.43585256
3205.585,0.43651265
3207.066,0.43695736
3208.548,0.43733544
3210.031,0.43790616
3211.515,0.43875807
3213.001,0.43980423
3214.488,0.44089961
3215.977,0.4418344
3217.467,0.44236844
3218.958,0.4424342
3220.451,0.44225252
3221.945,0.44215195
3223.441,0.44232746
3224.938,0.44276307
3226.436,0.44326943
3227.936,0.44359254
3229.437,0.44364954
3230.939,0.44365351
3232.443,0.44388073
3233.948,0.44434379
3235.455,0.44483495
3236.963,0.44521845
3238.472,0.44552587
3239.983,0.44585338
3241.495,0.44631469
3243.008,0.44697484
3244.523,0.44771465
3246.04,0.44829844
3247.558,0.44868242
3249.077,0.44906478
3250.598,0.44957854
3252.12,0.45016602
3253.643,0.45078339
3255.168,0.45142414
3256.694,0.45193574
3258.222,0.45210067
3259.751,0.45192556
3261.282,0.45159754
3262.814,0.45124487
3264.347,0.45097434
3265.882,0.45098061
3267.418,0.45132651
3268.956,0.45178077
3270.495,0.45208843
3272.036,0.45222649
3273.578,0.45225901
3275.122,0.45222085
3276.667,0.45225121
3278.213,0.45253211
3279.761,0.45300338
3281.31,0.45344692
3282.861,0.45384988
3284.413,0.45436076
3285.967,0.45494335
3287.522,0.45542083
3289.079,0.45578714
3290.637,0.45617796
3292.196,0.45661874
3293.757,0.45705183
3295.32,0.45745961
3296.884,0.45776898
3298.449,0.45783217
3300.016,0.45767859
3301.585,0.4575707
3303.155,0.45767246
3304.726,0.45787849
3306.299,0.45804068
3307.873,0.45814516
3309.449,0.45822979
3311.026,0.4583328
3312.605,0.45853185
3314.185,0.45886842
3315.767,0.45926051
3317.351,0.45962416
3318.936,0.46000727
3320.522,0.4605008
3322.11,0.46112622
3323.699,0.4618829
3325.29,0.46277537
3326.882,0.46371577
3328.476,0.46450604
3330.072,0.46495906
3331.669,0.46500579
3333.267,0.4647297
3334.867,0.46436609
3336.469,0.46417437
3338.072,0.46423081
3339.676,0.46442387
3341.282,0.46466726
3342.89,0.46496258
3344.499,0.465274
3346.11,0.46552737
3347.722,0.46574014
3349.336,0.46595946
3350.952,0.46610427
3352.569,0.46605151
3354.187,0.46582819
3355.807,0.46555414
3357.429,0.46530777
3359.052,0.46517918
3360.677,0.4652886
3362.303,0.46559883
3363.931,0.46587901
3365.56,0.46597402
3367.191,0.46592736
3368.824,0.46578079
3370.458,0.46549234
3372.093,0.46509714
3373.731,0.46471087
3375.37,0.46436812
3377.01,0.46407879
3378.652,0.46396908
3380.296,0.46411988
3381.941,0.46438013
3383.588,0.46458169
3385.236,0.46479022
3386.886,0.46512828
3388.538,0.46553246
3390.191,0.4658933
3391.846,0.46624307
3393.502,0.46662106
3395.16,0.46692329
3396.82,0.46702365
3398.481,0.46689576
3400.144,0.46656205
3401.809,0.46607639
3403.475,0.4655704
3405.143,0.46511971
3406.812,0.46459546
3408.483,0.46381212
3410.156,0.46281823
3411.83,0.46187159
3413.506,0.46118
3415.183,0.46079049
3416.862,0.46069336
3418.543,0.46088505
3420.226,0.46134876
3421.91,0.46204714
3423.596,0.46293501
3425.283,0.46394121
3426.972,0.46499034
3428.663,0.46606904
3430.355,0.46722694
3432.049,0.46846962
3433.745,0.46972553
3435.442,0.47093849
3437.141,0.47213984
3438.842,0.47336237
3440.545,0.4745245
3442.249,0.47545496
3443.954,0.47602364
3445.662,0.47623026
3447.371,0.47622181
3449.082,0.47623425
3450.794,0.47645003
3452.509,0.47686536
3454.224,0.47734946
3455.942,0.47781671
3457.661,0.47828134
3459.382,0.47876668
3461.105,0.4792567
3462.829,0.47971256
3464.556,0.48005892
3466.283,0.48021813
3468.013,0.4802233
3469.744,0.48021893
3471.477,0.48030048
3473.212,0.48044939
3474.948,0.48064472
3476.686,0.48089958
3478.426,0.48117215
3480.168,0.48139786
3481.911,0.48160493
3483.656,0.48188059
3485.403,0.48227886
3487.152,0.48283601
3488.902,0.48353806
3490.654,0.48417142
3492.408,0.48440256
3494.164,0.48413988
3495.921,0.48364403
3497.68,0.48321653
3499.441,0.48297388
3501.204,0.48294799
3502.968,0.48317098
3504.734,0.48362031
3506.502,0.48425862
3508.272,0.48511308
3510.043,0.48616916
3511.817,0.48728306
3513.592,0.48835117
3515.368,0.48942827
3517.147,0.49056807
3518.927,0.49170253
3520.71,0.49275616
3522.494,0.49369281
3524.28,0.49443225
3526.067,0.49493371
3527.857,0.49537787
3529.648,0.49602676
3531.441,0.49689433
3533.236,0.49772269
3535.032,0.49826949
3536.831,0.4984724
3538.631,0.49841746
3540.433,0.49828347
3542.237,0.49824561
3544.043,0.49833788
3545.851,0.49847633
3547.66,0.49862763
3549.471,0.49883652
3551.284,0.49907906
3553.099,0.49925065
3554.916,0.49931599
3556.735,0.49935138
3558.555,0.49941934
3560.378,0.49951669
3562.202,0.49963764
3564.028,0.49980083
3565.856,0.50001927
3567.686,0.5003031
3569.518,0.50063987
3571.351,0.50093964
3573.187,0.50107133
3575.024,0.50100312
3576.863,0.5008527
3578.704,0.50077362
3580.547,0.50084712
3582.392,0.50107766
3584.239,0.50139532
3586.088,0.50166584
3587.938,0.50179129
3589.791,0.50182198
3591.645,0.50189928
3593.501,0.50209693
3595.359,0.50236821
3597.22,0.50260979
3599.082,0.50272127
3600.946,0.50266008
3602.811,0.50248729
3604.679,0.50231971
3606.549,0.50221881
3608.421,0.50219498
3610.294,0.50229224
3612.17,0.50255996
3614.047,0.50294373
3615.926,0.50330365
3617.808,0.50354091
3619.691,0.50364526
3621.576,0.50366507
3623.463,0.50368749
3625.353,0.50377671
3627.244,0.50390264
3629.137,0.50399716
3631.032,0.50406842
3632.929,0.50416258
3634.828,0.50426683
3636.729,0.50434633
3638.632,0.50441781
3640.537,0.50448985
3642.444,0.5045294
3644.353,0.5045665
3646.263,0.50471228
3648.176,0.50499064
3650.091,0.50528221
3652.008,0.50545432
3653.927,0.50545287
3655.848,0.50530267
3657.771,0.50513821
3659.696,0.50515391
3661.623,0.50539206
3663.552,0.50567184
3665.483,0.5058175
3667.416,0.50582691
3669.351,0.50577977
3671.288,0.50573599
3673.227,0.50577498
3675.168,0.50596217
3677.111,0.5062487
3679.057,0.50651451
3681.004,0.50669119
3682.953,0.50674715
3684.905,0.50664938
3686.858,0.50643985
3688.814,0.50625633
3690.771,0.50619887
3692.731,0.50626167
3694.693,0.5064165
3696.656,0.50665547
3698.622,0.50693469
3700.59,0.50716882
3702.56,0.50728059
3704.532,0.50723438
3706.507,0.50706154
3708.483,0.50687214
3710.461,0.5067796
3712.442,0.50680993
3714.425,0.50691314
3716.409,0.50703155
3718.396,0.50712282
3720.385,0.50716989
3722.376,0.50718247
3724.37,0.50716288
3726.365,0.50710678
3728.362,0.50706291
3730.362,0.50710064
3732.364,0.50719991
3734.368,0.50727353
3736.374,0.50731318
3738.382,0.50737647
3740.392,0.50747486
3742.405,0.50759218
3744.419,0.50774321
3746.436,0.50789291
3748.455,0.50794302
3750.476,0.50788889
3752.499,0.50782116
3754.525,0.50773096
3756.553,0.50754869
3758.582,0.50734371
3760.614,0.50724757
3762.649,0.50722315
3764.685,0.50716798
3766.724,0.50711347
3768.764,0.5071026
3770.807,0.50705353
3772.853,0.50693968
3774.9,0.50685245
3776.95,0.50677305
3779.001,0.50658027
3781.056,0.50634277
3783.112,0.50625297
3785.17,0.50629108
3787.231,0.50630223
3789.294,0.50630371
3791.359,0.50637042
3793.427,0.50639183
3795.496,0.50625742
3797.568,0.50607261
3799.643,0.50593348
3801.719,0.50576715
3803.798,0.50556048
3805.879,0.50544154
3807.962,0.505414
3810.048,0.50535504
3812.135,0.5053018
3814.225,0.50540446
3816.318,0.50562487
3818.412,0.50579876
3820.509,0.50589924
3822.609,0.50596454
3824.71,0.50590928
3826.814,0.50568462
3828.92,0.50545755
3831.029,0.50540972
3833.139,0.50551889
3835.252,0.50568268
3837.368,0.50587224
3839.486,0.50606308
3841.606,0.50618921
3843.728,0.50624681
3845.853,0.50631779
3847.98,0.50645012
3850.109,0.50661357
3852.241,0.50677044
3854.375,0.50690847
3856.512,0.50701633
3858.65,0.50708345
3860.792,0.5071301
3862.935,0.5071978
3865.081,0.50730029
3867.229,0.50739881
3869.38,0.50744774
3871.533,0.50745797
3873.689,0.50748042
3875.846,0.50752577
3878.007,0.50756033
3880.169,0.50757399
3882.334,0.50758333
3884.502,0.50756029
3886.672,0.50745993
3888.844,0.50731481
3891.019,0.50720919
3893.196,0.50715762
3895.375,0.50709872
3897.557,0.50700463
3899.742,0.50689935
3901.929,0.50677233
3904.118,0.50659514
3906.31,0.50642776
3908.504,0.50638154
3910.7,0.50645354
3912.9,0.50650983
3915.101,0.50645252
3917.305,0.50629724
3919.512,0.50608841
3921.721,0.50587258
3923.932,0.50574845
3926.146,0.5057863
3928.363,0.5058987
3930.581,0.50594967
3932.803,0.50595744
3935.027,0.50602898
3937.253,0.50616544
3939.482,0.50631929
3941.714,0.50654324
3943.948,0.50687784
3946.184,0.50720313
3948.423,0.50740147
3950.665,0.50754213
3952.909,0.50774169
3955.156,0.50799208
3957.405,0.50827412
3959.657,0.50865677
3961.911,0.50916317
3964.168,0.50971826
3966.427,0.51030549
3968.689,0.51098657
3970.954,0.51174645
3973.221,0.51249938
3975.491,0.51324882
3977.763,0.514049
3980.038,0.51484111
3982.315,0.51549576
3984.595,0.51600097
3986.878,0.51646867
3989.163,0.51698711
3991.451,0.51753933
3993.742,0.5180553
3996.035,0.51850584
3998.33,0.51894705
4000.629,0.51945549
4002.93,0.52002012
4005.233,0.52055189
4007.54,0.52098726
4009.849,0.52130868
4012.16,0.5215152
4014.475,0.52165583
4016.791,0.52182248
4019.111,0.52204345
4021.433,0.52227898
4023.758,0.52252824
4026.086,0.52281621
4028.416,0.52308698
4030.749,0.52328662
4033.085,0.52350737
4035.423,0.5238633
4037.764,0.52427312
4040.108,0.52457959
4042.454,0.5247967
4044.804,0.52504377
4047.155,0.52532282
4049.51,0.52556355
4051.867,0.52579126
4054.228,0.52607761
4056.59,0.52639708
4058.956,0.52668435
4061.324,0.52695498
4063.695,0.52724503
4066.069,0.52751454
4068.446,0.52773345
4070.825,0.52798382
4073.207,0.52833885
4075.592,0.52870974
4077.98,0.52898278
4080.371,0.52923238
4082.764,0.52960509
4085.16,0.53005589
4087.559,0.53043463
4089.961,0.53077067
4092.365,0.53119311
4094.773,0.53165605
4097.183,0.53203836
4099.596,0.53240678
4102.012,0.53284855
4104.43,0.53323162
4106.852,0.53345949
4109.276,0.5337112
4111.703,0.534113
4114.133,0.5344975
4116.566,0.5347717
4119.002,0.53512751
4121.441,0.53562163
4123.882,0.53602548
4126.327,0.53628573
4128.774,0.53662719
4131.224,0.537094
4133.677,0.53752313
4136.133,0.53797658
4138.592,0.53863445
4141.054,0.53935114
4143.519,0.53986145
4145.987,0.54025192
4148.457,0.54073244
4150.931,0.5412262
4153.407,0.5416023
4155.887,0.54197296
4158.369,0.54243949
4160.854,0.54290985
4163.343,0.54337474
4165.834,0.54394346
4168.328,0.54454723
4170.826,0.5450119
4173.326,0.54539209
4175.829,0.54585069
4178.335,0.54637396
4180.844,0.5469154
4183.356,0.54756559
4185.872,0.54834505
4188.39,0.54914253
4190.911,0.54999742
4193.435,0.55112317
4195.963,0.5526684
4198.493,0.55477136
4201.026,0.55768882
4203.563,0.56150814
4206.102,0.56595111
4208.645,0.57078285
4211.19,0.5760463
4213.739,0.5815987
4216.291,0.58695617
4218.846,0.59191594
4221.404,0.59668062
4223.965,0.60117299
4226.529,0.60507145
4229.096,0.6085311
4231.666,0.6117967
4234.24,0.61438871
4236.816,0.61577326
4239.396,0.61630475
4241.979,0.61631655
4244.565,0.61511064
4247.154,0.61179809
4249.746,0.60650237
4252.341,0.60033567
4254.94,0.59502964
4257.542,0.59249776
4260.146,0.59389279
4262.754,0.59870416
4265.366,0.60485386
4267.98,0.61003848
4270.598,0.61313837
4273.219,0.61426895
4275.843,0.61415636
4278.47,0.61381616
4281.1,0.61400421
4283.734,0.61470389
4286.371,0.61548719
4289.011,0.61612961
4291.655,0.61645194
4294.301,0.61616632
4296.951,0.61538141
4299.604,0.61475631
4302.261,0.61466352
4304.92,0.61469477
4307.583,0.61426939
4310.25,0.61328076
4312.919,0.61189039
4315.592,0.61025611
4318.268,0.60868731
4320.948,0.60757014
4323.631,0.60690907
4326.317,0.60632888
4329.006,0.6056114
4331.699,0.60484227
4334.395,0.60404211
4337.095,0.60313391
4339.797,0.60228219
4342.504,0.60179109
4345.213,0.60167215
4347.926,0.60172941
4350.642,0.60193462
4353.362,0.60231082
4356.085,0.60266755
4358.811,0.60289367
4361.541,0.60324035
4364.275,0.60392304
4367.011,0.6047725
4369.751,0.60558349
4372.495,0.6063734
4375.242,0.60710345
4377.992,0.60767903
4380.746,0.60833403
4383.504,0.60942589
4386.264,0.6108309
4389.029,0.61213262
4391.796,0.61327052
4394.567,0.61437787
4397.342,0.61530281
4400.12,0.61597207
4402.902,0.61677857
4405.687,0.61798294
4408.476,0.61925666
4411.268,0.62034639
4414.064,0.62147481
4416.863,0.62270408
4419.666,0.62372394
4422.472,0.62454645
4425.282,0.62551069
4428.096,0.62651354
4430.913,0.62718296
4433.734,0.62772077
4436.558,0.62857326
4439.386,0.62954413
4442.217,0.63017862
4445.052,0.63064339
4447.891,0.63131391
4450.733,0.63207217
4453.579,0.63274846
4456.428,0.63358994
4459.281,0.63464644
4462.138,0.63546685
4464.998,0.63590905
4467.863,0.6364638
4470.73,0.63740528
4473.602,0.63844251
4476.477,0.63936734
4479.355,0.64028663
4482.238,0.64114471
4485.124,0.64174616
4488.014,0.64217757
4490.908,0.64266648
4493.805,0.64320367
4496.706,0.643724
4499.611,0.64438022
4502.519,0.64527379
4505.431,0.64619761
4508.347,0.64688543
4511.267,0.64732113
4514.191,0.64765079
4517.118,0.64798423
4520.049,0.64831246
4522.984,0.64858388
4525.923,0.64885187
4528.865,0.6492509
4531.812,0.64973962
4534.762,0.65009762
4537.716,0.65030801
4540.674,0.65060643
4543.635,0.6510539
4546.601,0.65146394
4549.57,0.65185434
4552.543,0.65243529
4555.521,0.65313068
4558.502,0.65365674
4561.487,0.65405218
4564.475,0.65448435
4567.468,0.65471395
4570.465,0.65446257
4573.465,0.65413206
4576.47,0.6542503
4579.478,0.65463012
4582.491,0.65492864
4585.507,0.65533213
4588.527,0.65594516
4591.551,0.65632201
4594.58,0.65631742
4597.612,0.65654246
4600.648,0.65732302
4603.688,0.65810889
4606.732,0.65844169
4609.781,0.65857658
4612.833,0.6586897
4615.889,0.65853502
4618.949,0.65821383
4622.014,0.65823909
4625.082,0.65848618
4628.155,0.65832783
4631.231,0.65792533
4634.312,0.65812231
4637.397,0.65888624
4640.485,0.65939115
4643.578,0.65953366
4646.675,0.65984942
4649.777,0.66028712
4652.882,0.66035656
4655.991,0.6603132
4659.105,0.66083177
4662.223,0.66174679
4665.345,0.66252384
4668.471,0.66344926
4671.601,0.66494133
4674.735,0.66650156
4677.874,0.6675533
4681.017,0.66837976
4684.164,0.66913075
4687.315,0.6692284
4690.471,0.66874971
4693.63,0.66891419
4696.794,0.67027941
4699.962,0.67197203
4703.135,0.6733101
4706.312,0.67460517
4709.493,0.67590224
4712.678,0.67664623
4715.868,0.67692264
4719.062,0.67745919
4722.26,0.67831496
4725.463,0.67897858
4728.669,0.67952281
4731.881,0.68031171
4735.096,0.6810641
4738.316,0.68137075
4741.541,0.6815743
4744.769,0.68215537
4748.002,0.68296524
4751.24,0.68372219
4754.482,0.68451366
4757.728,0.68531486
4760.979,0.6858075
4764.234,0.68599554
4767.494,0.68629984
4770.758,0.68687806
4774.026,0.68750845
4777.299,0.68807242
4780.577,0.68864315
4783.859,0.68919217
4787.145,0.68962087
4790.436,0.68992792
4793.732,0.69017193
4797.032,0.6904304
4800.336,0.69083399
4803.645,0.69145181
4806.959,0.69218658
4810.277,0.69295213
4813.6,0.69375441
4816.927,0.69443534
4820.259,0.69468463
4823.596,0.69449098
4826.937,0.69423517
4830.283,0.69425692
4833.633,0.69468165
4836.988,0.6955395
4840.348,0.69662543
4843.712,0.69750185
4847.081,0.69808247
4850.455,0.69884932
4853.833,0.70008577
4857.216,0.701385
4860.604,0.70231865
4863.996,0.70307722
4867.393,0.70396903
4870.795,0.70478726
4874.202,0.70520832
4877.613,0.70539685
4881.03,0.70570673
4884.451,0.70622605
4887.876,0.70702212
4891.307,0.70828762
4894.742,0.70987344
4898.182,0.71121763
4901.627,0.71213275
4905.077,0.71309751
4908.532,0.7142656
4911.991,0.7150526
4915.456,0.71524968
4918.925,0.71554516
4922.399,0.7164096
4925.878,0.71754151
4929.362,0.71872671
4932.851,0.72006448
4936.345,0.72120599
4939.844,0.7216698
4943.347,0.72196854
4946.856,0.72303273
4950.37,0.72466624
4953.888,0.72589626
4957.412,0.72652073
4960.941,0.72701264
4964.474,0.72742561
4968.013,0.72766602
4971.556,0.72818486
4975.105,0.72923014
4978.659,0.73007787
4982.218,0.73015232
4985.782,0.73010296
4989.351,0.73064328
4992.925,0.73140879
4996.504,0.73193865
5000.088,0.73257227
5003.678,0.73353936
5007.272,0.73447149
5010.872,0.7353572
5014.477,0.73665697
5018.087,0.7380815
5021.703,0.73867201
5025.323,0.7383327
5028.949,0.73793539
5032.58,0.73786433
5036.216,0.73781291
5039.857,0.73781063
5043.504,0.73818963
5047.156,0.73874035
5050.813,0.73900007
5054.475,0.73909289
5058.143,0.73938348
5061.816,0.73971108
5065.495,0.73981302
5069.179,0.74002702
5072.868,0.74080072
5076.562,0.74191039
5080.262,0.74276871
5083.967,0.74315375
5087.678,0.74318645
5091.394,0.74299062
5095.115,0.74277307
5098.842,0.74287025
5102.574,0.74338529
5106.312,0.74401563
5110.055,0.74445658
5113.804,0.74475278
5117.558,0.74509457
5121.318,0.74549281
5125.083,0.74586758
5128.854,0.74636232
5132.63,0.74734864
5136.412,0.74902907
5140.199,0.75112345
5143.992,0.75301936
5147.791,0.75418013
5151.595,0.75442831
5155.405,0.75406169
5159.22,0.75379942
5163.041,0.75431451
5166.868,0.75560627
5170.7,0.7570684
5174.538,0.75832176
5178.382,0.75957721
5182.231,0.76108104
5186.086,0.76280638
5189.947,0.76484494
5193.814,0.7673686
5197.686,0.77005305
5201.564,0.77232514
5205.448,0.77420794
5209.338,0.77597739
5213.233,0.77713966
5217.134,0.77702645
5221.041,0.77628014
5224.954,0.77632407
5228.873,0.77755145
5232.798,0.7792205
5236.728,0.7807594
5240.665,0.78205254
5244.607,0.78288849
5248.555,0.78326473
5252.51,0.78379733
5256.47,0.78488287
5260.436,0.78611787
5264.408,0.78723328
5268.386,0.7886397
5272.37,0.79042572
5276.36,0.79202429
5280.356,0.79339204
5284.358,0.79518029
5288.367,0.79727122
5292.381,0.7985748
5296.401,0.79873357
5300.428,0.79861847
5304.46,0.79884703
5308.499,0.79925077
5312.544,0.79982828
5316.595,0.80084773
5320.652,0.80200775
5324.715,0.80272082
5328.785,0.80322157
5332.86,0.80439792
5336.942,0.80669617
5341.031,0.80987984
5345.125,0.81332104
5349.226,0.81583748
5353.333,0.81611354
5357.446,0.81423998
5361.566,0.8120051
5365.692,0.81094331
5369.824,0.810994
5373.962,0.81133199
5378.107,0.81162676
5382.259,0.81193584
5386.417,0.8121604
5390.581,0.81228242
5394.751,0.81264998
5398.928,0.81352851
5403.112,0.81492135
5407.302,0.81706972
5411.498,0.82033153
5415.701,0.82406207
5419.911,0.82640183
5424.127,0.82607729
5428.349,0.82389916
5432.579,0.82161344
5436.814,0.82019613
5441.057,0.81989321
5445.305,0.8208221
5449.561,0.82289525
5453.823,0.82582621
5458.092,0.8294463
5462.368,0.83333398
5466.65,0.83629454
5470.939,0.83750559
5475.234,0.83782712
5479.537,0.8383614
5483.846,0.83850877
5488.162,0.83727398
5492.484,0.83548407
5496.814,0.83483056
5501.15,0.83603618
5505.493,0.83933358
5509.843,0.84498845
5514.2,0.85221565
5518.564,0.85922535
5522.934,0.86488274
5527.312,0.86908276
5531.696,0.87227687
5536.087,0.8759348
5540.486,0.88003664
5544.891,0.87628821
5549.303,0.85126177
5553.723,0.80018158
5558.149,0.75428649
5562.582,0.71157294
5567.023,0.69444341
5571.47,0.6925711
5575.925,0.69245603
5580.387,0.71350572
5584.856,0.7457383
5589.332,0.76730274
5593.815,0.77830499
5598.305,0.7875065
5602.803,0.79478379
5607.307,0.79700989
5611.819,0.79970032
5616.339,0.80662759
5620.865,0.81276396
5625.399,0.8144598
5629.94,0.81662654
5634.489,0.82175435
5639.044,0.82471425
5643.607,0.82286791
5648.178,0.82159281
5652.756,0.82281784
5657.341,0.82258338
5661.934,0.82095029
5666.534,0.82276886
5671.142,0.82758648
5675.757,0.82972086
5680.379,0.82853746
5685.01,0.82863144
5689.647,0.83018762
5694.293,0.83003028
5698.945,0.829973
5703.606,0.83396455
5708.274,0.83976182
5712.949,0.84187969
5717.633,0.84123828
5722.324,0.84193954
5727.022,0.84305098
5731.729,0.84200595
5736.443,0.84131919
5741.165,0.84366603
5745.894,0.84640112
5750.631,0.84721383
5755.377,0.84953789
5760.13,0.85511612
5764.89,0.85866853
5769.659,0.85671092
5774.436,0.85413343
5779.22,0.85397735
5784.012,0.85300668
5788.813,0.85028314
5793.621,0.84978039
5798.437,0.85245675
5803.262,0.85497657
5808.094,0.85754042
5812.934,0.86356535
5817.782,0.87083441
5822.639,0.87268802
5827.503,0.8698064
5832.376,0.8678441
5837.257,0.86697094
5842.146,0.86499863
5847.043,0.86478105
5851.948,0.86878709
5856.862,0.87325685
5861.783,0.87459687
5866.714,0.87644446
5871.652,0.88153757
5876.598,0.885777
5881.553,0.88593404
5886.517,0.88553513
5891.488,0.8855232
5896.468,0.8822132
5901.457,0.87684048
5906.454,0.87504082
5911.459,0.8769214
5916.473,0.87859586
5921.495,0.88056862
5926.526,0.88578296
5931.565,0.89108937
5936.613,0.89053122
5941.67,0.88628143
5946.735,0.88381927
5951.809,0.8828472
5956.891,0.88169097
5961.982,0.88226254
5967.082,0.8850414
5972.19,0.88648168
5977.307,0.88553409
5982.433,0.88553829
5987.568,0.88662412
5992.711,0.88535258
5997.864,0.88258881
6003.025,0.88234687
6008.195,0.88394948
6013.374,0.8834413
6018.562,0.88144236
6023.759,0.88178077
6028.964,0.88502451
6034.179,0.8893704
6039.403,0.89441876
6044.636,0.89884078
6049.878,0.89932627
6055.129,0.89677458
6060.389,0.89613011
6065.658,0.89797582
6070.936,0.89822391
6076.224,0.89525939
6081.52,0.89218233
6086.826,0.89117976
6092.141,0.8920256
6097.466,0.89489913
6102.8,0.89947504
6108.143,0.90250382
6113.495,0.90130122
6118.857,0.89809826
6124.228,0.89618831
6129.609,0.89583662
6134.999,0.89644732
6140.398,0.8982903
6145.807,0.90064576
6151.226,0.9016388
6156.654,0.90117297
6162.091,0.90099801
6167.539,0.9017377
6172.996,0.90264068
6178.462,0.90341772
6183.938,0.90392329
6189.424,0.90339652
6194.92,0.90197938
6200.425,0.90119373
6205.94,0.90156831
6211.465,0.90193221
6217.0,0.90162489
6222.544,0.90155897
6228.099,0.90217838
6233.663,0.90262345
6239.237,0.90248887
6244.822,0.90254351
6250.416,0.90311654
6256.02,0.90375597
6261.635,0.90450289
6267.259,0.90577117
6272.893,0.90689161
6278.538,0.90680542
6284.193,0.90595356
6289.858,0.90570272
6295.533,0.9061737
6301.218,0.90662702
6306.914,0.90719595
6312.619,0.9083926
6318.336,0.90977816
6324.062,0.9110067
6329.799,0.91273492
6335.546,0.91483095
6341.304,0.91556565
6347.072,0.91484879
6352.851,0.91511654
6358.64,0.91720651
6364.44,0.91893772
6370.25,0.91882038
6376.071,0.91803222
6381.903,0.91768844
6387.745,0.917935
6393.598,0.91984571
6399.461,0.92428264
6405.335,0.92871399
6411.221,0.92931525
6417.116,0.92701501
6423.023,0.92511852
6428.941,0.92375776
6434.869,0.92226582
6440.809,0.92189587
6446.759,0.92298703
6452.72,0.92375571
6458.693,0.92403615
6464.676,0.92601117
6470.671,0.92973165
6476.676,0.93232715
6482.693,0.9326858
6488.721,0.93230789
6494.76,0.93132595
6500.81,0.92940658
6506.872,0.92854888
6512.945,0.92978964
6519.029,0.93082049
6525.124,0.93005477
6531.231,0.92958944
6537.35,0.93088143
6543.48,0.9323023
6549.621,0.93299967
6555.774,0.93444219
6561.938,0.93650378
6568.114,0.93710586
6574.302,0.9366572
6580.501,0.93712989
6586.712,0.93772892
6592.934,0.93681056
6599.169,0.93586435
6605.415,0.93694675
6611.673,0.93924585
6617.943,0.9411646
6624.224,0.94278946
6630.518,0.94357429
6636.823,0.94177984
6643.141,0.93867496
6649.47,0.93768498
6655.812,0.93909229
6662.166,0.94042737
6668.532,0.94063753
6674.91,0.94072402
6681.3,0.94091751
6687.702,0.94085851
6694.117,0.94151526
6700.544,0.94343887
6706.983,0.94487593
6713.435,0.94435388
6719.899,0.94317437
6726.375,0.94276829
6732.864,0.94259292
6739.365,0.94231089
6745.879,0.94291177
6752.406,0.94458678
6758.945,0.94615486
6765.497,0.94725519
6772.062,0.94846363
6778.639,0.94917431
6785.229,0.9482305
6791.832,0.94658013
6798.448,0.94607199
6805.076,0.94667701
6811.718,0.94732991
6818.372,0.94793006
6825.039,0.94872015
6831.72,0.94932227
6838.413,0.94981731
6845.12,0.95101841
6851.84,0.95258331
6858.573,0.95280699
6865.319,0.95152624
6872.078,0.95048208
6878.851,0.95031143
6885.637,0.95030769
6892.437,0.95040535
6899.25,0.95096914
6906.076,0.95141521
6912.916,0.95112924
6919.769,0.95090351
6926.636,0.9515623
6933.517,0.95257848
6940.411,0.95331238
6947.319,0.9540619
6954.241,0.95481564
6961.176,0.95490294
6968.125,0.95462868
6975.089,0.95499343
6982.066,0.95576922
6989.057,0.95599977
6996.062,0.95589791
7003.081,0.95629208
7010.114,0.95696617
7017.161,0.95742598
7024.223,0.95815503
7031.298,0.95943689
7038.388,0.96030642
7045.492,0.96018015
7052.611,0.95989493
7059.743,0.95997929
7066.891,0.95996446
7074.052,0.95981184
7081.229,0.96012567
7088.419,0.96083505
7095.625,0.96131641
7102.845,0.96167652
7110.079,0.96242032
7117.329,0.96332252
7124.593,0.96391462
7131.872,0.9644076
7139.166,0.96509867
7146.475,0.96562149
7153.799,0.96560174
7161.137,0.96532554
7168.491,0.96521991
7175.86,0.9653301
7183.244,0.96559646
7190.643,0.96603851
7198.058,0.96655512
7205.487,0.96691089
7212.933,0.96701612
7220.393,0.96706784
7227.869,0.96735486
7235.36,0.96793426
7242.867,0.96858347
7250.39,0.96914549
7257.928,0.96967679
7265.481,0.97010041
7273.051,0.97019741
7280.636,0.97014313
7288.237,0.97038905
7295.854,0.97089855
7303.487,0.97127622
7311.135,0.97159943
7318.8,0.97219727
7326.481,0.97278493
7334.178,0.97285857
7341.891,0.97267163
7349.62,0.97274279
7357.366,0.97298533
7365.128,0.97320254
7372.906,0.97367481
7380.701,0.97447431
7388.512,0.97512416
7396.34,0.97546854
7404.184,0.97592726
7412.045,0.97654976
7419.922,0.97692328
7427.817,0.97706904
7435.728,0.97741002
7443.656,0.97794186
7451.601,0.97837874
7459.562,0.97876489
7467.541,0.97922092
7475.537,0.97953691
7483.55,0.97960788
7491.58,0.97967993
7499.628,0.97987519
7507.692,0.98005282
7515.774,0.98020426
7523.874,0.98045593
7531.99,0.98076385
7540.125,0.98104713
7548.277,0.98136779
7556.446,0.9817253
7564.633,0.98201348
7572.838,0.9822642
7581.061,0.98252862
7589.302,0.98267588
7597.56,0.98267536
7605.837,0.98275652
7614.131,0.98297089
7622.444,0.98306471
7630.774,0.98300512
7639.123,0.98304596
7647.491,0.98321255
7655.876,0.98334542
7664.28,0.98355204
7672.702,0.98398087
7681.143,0.98439268
7689.602,0.98454306
7698.08,0.98461694
7706.577,0.98479518
7715.093,0.98490934
7723.627,0.98490152
7732.18,0.98505081
7740.752,0.98543629
7749.343,0.98579338
7757.953,0.98603874
7766.583,0.98637588
7775.231,0.98681826
7783.899,0.98717674
7792.586,0.98746809
7801.292,0.98785943
7810.018,0.98832282
7818.764,0.98873403
7827.529,0.98914334
7836.313,0.98964053
7845.117,0.99013169
7853.942,0.99050133
7862.786,0.99082817
7871.649,0.99126355
7880.533,0.99179952
7889.437,0.99231373
7898.361,0.99274213
7907.305,0.99311719
7916.27,0.99346369
7925.254,0.99378134
7934.26,0.99407951
7943.285,0.99438206
7952.331,0.99468215
7961.398,0.99499985
7970.485,0.99542148
7979.594,0.99598819
7988.723,0.99657436
7997.872,0.99702115
8007.043,0.99733155
8016.235,0.99762029
8025.448,0.99792715
8034.682,0.99823497
8043.937,0.99855512
8053.214,0.99890812
8062.512,0.99925335
8071.832,0.99952411
8081.173,0.99970004
8090.535,0.99982109
8099.92,0.99998496
8109.326,0.0100027248
8118.754,0.0100065311
8128.204,0.010010359
8137.676,0.0100138184
8147.169,0.0100168869
8156.686,0.0100194481
8166.224,0.010021987
8175.785,0.0100256406
8185.368,0.0100302833
8194.973,0.0100344654
8204.601,0.0100376955
8214.252,0.0100408187
8223.925,0.0100437472
8233.621,0.0100456072
8243.34,0.0100470814
8253.082,0.0100498232
8262.847,0.0100538099
8272.635,0.0100577902
8282.446,0.0100615842
8292.281,0.0100655123
8302.139,0.0100689881
8312.02,0.010071648
8321.925,0.0100745468
8331.853,0.0100783508
8341.805,0.0100820601
8351.781,0.0100848795
8361.781,0.0100876537
8371.804,0.0100912263
8381.852,0.0100949201
8391.924,0.0100977744
8402.02,0.0101001748
8412.14,0.0101028757
8422.285,0.0101054494
8432.454,0.0101071299
8442.648,0.0101085358
8452.866,0.0101107064
8463.109,0.0101132419
8473.377,0.0101152608
8483.67,0.0101174834
8493.988,0.0101205606
8504.331,0.0101229898
8514.699,0.0101235414
8525.092,0.0101240424
8535.511,0.0101262991
8545.955,0.0101289558
8556.425,0.0101305988
8566.921,0.0101325672
8577.442,0.0101354919
8587.989,0.0101373929
8598.562,0.0101377147
8609.161,0.0101386161
8619.786,0.01014051
8630.437,0.01014163
8641.115,0.0101422339
8651.819,0.010144128
8662.55,0.0101465046
8673.307,0.0101477756
8684.091,0.0101493006
8694.902,0.0101527392
8705.739,0.0101566529
8716.604,0.010159494
8727.496,0.0101621253
8738.415,0.0101648997
8749.361,0.0101666204
8760.335,0.0101676912
8771.336,0.0101698179
8782.365,0.0101728381
8793.422,0.0101757605
8804.507,0.0101790925
8815.619,0.0101831054
8826.76,0.0101868662
8837.928,0.0101907126
8849.125,0.0101956507
8860.351,0.0102002245
8871.604,0.0102027242
8882.887,0.0102046578
8894.198,0.0102077087
8905.538,0.0102104162
8916.907,0.0102120026
8928.305,0.0102143917
8939.732,0.0102174696
8951.188,0.0102186153
8962.673,0.0102184984
8974.189,0.0102199897
8985.733,0.0102221182
8997.308,0.0102222544
9008.912,0.0102220953
9020.546,0.0102236558
9032.21,0.0102242286
9043.905,0.0102218186
9055.629,0.0102197726
9067.384,0.0102200117
9079.17,0.0102194872
9090.986,0.010217069
9102.833,0.0102158645
9114.711,0.0102158726
9126.62,0.0102136266
9138.56,0.0102093546
9150.531,0.0102062352
9162.534,0.0102035513
9174.568,0.0101989966
9186.634,0.0101946605
9198.731,0.0101935606
9210.86,0.0101937855
9223.022,0.0101925331
9235.215,0.0101909486
9247.441,0.0101904878
9259.699,0.010189479
9271.99,0.0101870889
9284.313,0.0101853378
9296.669,0.0101851752
9309.058,0.0101849694
9321.48,0.0101842056
9333.935,0.0101842199
9346.423,0.0101850439
9358.945,0.0101852754
9371.5,0.0101851006
9384.089,0.0101860541
9396.712,0.0101882947
9409.369,0.0101905238
9422.06,0.0101922419
9434.785,0.0101938692
9447.545,0.0101954801
9460.339,0.0101969419
9473.167,0.0101989186
9486.031,0.0102018296
9498.929,0.0102047689
9511.863,0.0102066863
9524.832,0.0102079962
9537.836,0.0102096093
9550.876,0.0102114893
9563.951,0.0102132218
9577.062,0.0102149818
9590.209,0.0102166267
9603.393,0.010217517
9616.612,0.0102179074
9629.868,0.010218848
9643.16,0.0102204496
9656.49,0.0102222223
9669.856,0.0102244579
9683.259,0.0102273751
9696.699,0.0102297992
9710.176,0.010230845
9723.691,0.010231267
9737.244,0.0102316471
9750.834,0.0102311586
9764.463,0.0102296801
9778.129,0.0102282425
9791.834,0.010226861
9805.577,0.0102247471
9819.359,0.0102229725
9833.18,0.0102231664
9847.039,0.0102245502
9860.938,0.0102251722
9874.875,0.0102252046
9888.853,0.0102256633
9902.869,0.0102260251
9916.926,0.0102255525
9931.022,0.0102252538
9945.159,0.0102257734
9959.336,0.0102261335
9973.553,0.0102259316
9987.811,0.0102264217
10002.109,0.0102279082
10016.449,0.0102289913
10030.83,0.0102291002
10045.252,0.0102293741
10059.715,0.0102302506
10074.221,0.0102308356
10088.768,0.0102310017
10103.357,0.0102319072
10117.988,0.0102338117
10132.662,0.0102357302
10147.378,0.0102372498
10162.137,0.0102390642
10176.939,0.0102413249
10191.784,0.0102435019
10206.672,0.0102458403
10221.604,0.0102491444
10236.58,0.0102528661
10251.6,0.0102556114
10266.663,0.0102573404
10281.771,0.0102591516
10296.924,0.0102610133
10312.121,0.0102622462
10327.363,0.0102632734
10342.65,0.0102649289
10357.982,0.0102666188
10373.36,0.0102674544
10388.784,0.0102678674
10404.253,0.0102684358
10419.769,0.0102686884
10435.331,0.0102684872
10450.939,0.0102683918
10466.594,0.0102681731
10482.296,0.0102672225
10498.045,0.0102662636
10513.842,0.0102662093
10529.686,0.0102666498
10545.577,0.0102673365
10561.517,0.0102690891
10577.505,0.0102715252
10593.542,0.0102729532
10609.627,0.0102734129
10625.761,0.0102741695
10641.944,0.0102745272
10658.176,0.0102734041
10674.458,0.0102722285
10690.79,0.0102722212
10707.172,0.010271742
10723.604,0.0102703117
10740.086,0.0102702501
10756.619,0.0102717404
10773.203,0.0102719304
10789.839,0.010271031
10806.525,0.0102717809
10823.264,0.0102731646
10840.054,0.010272486
10856.896,0.0102719093
10873.791,0.0102744105
10890.738,0.0102773689
10907.738,0.0102778021
10924.791,0.0102783768
10941.898,0.0102809829
10959.058,0.01028249
10976.272,0.010281954
10993.541,0.010283096
11010.863,0.0102860249
11028.24,0.0102868315
11045.672,0.010285991
11063.16,0.0102870252
11080.702,0.0102883353
11098.301,0.0102868868
11115.955,0.0102854664
11133.665,0.0102871135
11151.432,0.0102884581
11169.256,0.0102864496
11187.137,0.0102837117
11205.075,0.010282074
11223.07,0.0102793971
11241.124,0.0102760539
11259.235,0.0102750719
11277.405,0.0102756777
11295.634,0.0102749075
11313.921,0.0102737127
11332.268,0.0102737611
11350.675,0.0102728346
11369.141,0.0102693153
11387.667,0.0102657698
11406.254,0.0102637636
11424.901,0.0102616293
11443.61,0.0102590202
11462.38,0.010257487
11481.211,0.0102563357
11500.105,0.0102540382
11519.06,0.0102517556
11538.079,0.0102508962
11557.16,0.0102500287
11576.304,0.0102480694
11595.511,0.0102462768
11614.783,0.0102450525
11634.118,0.0102430056
11653.518,0.0102405301
11672.983,0.0102396308
11692.513,0.0102402112
11712.108,0.010240281
11731.769,0.0102397072
11751.496,0.0102396534
11771.29,0.0102398021
11791.15,0.0102389957
11811.077,0.0102380807
11831.072,0.0102386137
11851.134,0.010240247
11871.265,0.0102414375
11891.464,0.0102423708
11911.731,0.0102440515
11932.068,0.0102455869
11952.475,0.0102451216
11972.951,0.0102435216
11993.497,0.0102431742
12014.114,0.0102441614
12034.802,0.0102447864
12055.562,0.0102455931
12076.393,0.0102475094
12097.296,0.010248391
12118.271,0.0102462741
12139.32,0.0102437522
12160.441,0.0102432015
12181.636,0.0102422887
12202.905,0.0102393033
12224.249,0.0102376735
12245.667,0.0102391904
12267.16,0.0102402283
12288.729,0.0102389399
12310.373,0.0102382843
12332.094,0.0102385225
12353.892,0.010235953
12375.767,0.010230832
12397.719,0.0102273159
12419.75,0.0102252951
12441.859,0.0102219046
12464.046,0.0102189082
12486.313,0.0102196122
12508.659,0.0102216089
12531.086,0.0102210406
12553.593,0.0102191347
12576.18,0.0102183173
12598.85,0.0102172597
12621.601,0.0102150492
12644.434,0.0102140613
12667.35,0.0102151467
12690.349,0.0102153383
12713.432,0.0102135929
12736.599,0.0102125587
12759.85,0.0102134895
12783.187,0.0102144392
12806.608,0.0102146542
12830.116,0.0102154854
12853.71,0.0102170976
12877.391,0.0102180783
12901.159,0.0102186063
12925.016,0.0102201275
12948.96,0.0102224487
12972.993,0.0102241177
12997.116,0.0102255571
13021.329,0.0102281418
13045.631,0.0102312998
13070.025,0.0102332132
13094.51,0.0102340081
13119.087,0.0102350158
13143.756,0.010236394
13168.518,0.0102380388
13193.373,0.0102410339
13218.322,0.0102449906
13243.366,0.0102474724
13268.505,0.0102480655
13293.74,0.0102494031
13319.07,0.0102522025
13344.497,0.0102546387
13370.021,0.0102566159
13395.644,0.0102591841
13421.364,0.0102603508
13447.183,0.0102585796
13473.102,0.0102567676
13499.121,0.0102569957
13525.24,0.0102561793
13551.461,0.0102531628
13577.783,0.0102513658
13604.208,0.0102510033
13630.736,0.0102480963
13657.367,0.0102441117
13684.103,0.0102434372
13710.943,0.0102430161
13737.889,0.0102369861
13764.941,0.0102291709
13792.099,0.0102257876
13819.365,0.0102241135
13846.739,0.0102206587
13874.221,0.0102197928
13901.813,0.0102222925
13929.515,0.0102209718
13957.327,0.0102151269
13985.25,0.0102129658
14013.285,0.0102143834
14041.433,0.010212044
14069.694,0.0102082456
14098.068,0.0102101185
14126.558,0.010212635
14155.163,0.0102085379
14183.883,0.010203703
14212.721,0.0102039963
14241.676,0.0102019679
14270.749,0.0101943936
14299.94,0.0101912014
14329.252,0.010195226
14358.684,0.0101961025
14388.237,0.0101925497
14417.911,0.0101924988
14447.709,0.010192728
14477.629,0.0101847301
14507.674,0.0101764549
14537.844,0.0101782678
14568.139,0.0101825712
14598.561,0.0101796082
14629.109,0.0101762167
14659.786,0.0101759255
14690.592,0.0101696067
14721.528,0.0101578511
14752.594,0.0101550749
14783.791,0.0101591248
14815.121,0.0101539603
14846.583,0.0101375471
14878.179,0.0101193641
14909.91,0.0100975603
14941.777,0.0100749621
14973.78,0.0100694311
15005.92,0.0100861153
15038.198,0.0100996344
15070.616,0.010097416
15103.173,0.0100884785
15135.871,0.0100795923
15168.712,0.010061111
15201.695,0.0100391751
15234.821,0.0100172823
15268.092,0.99911529
15301.509,0.9951735
15335.072,0.99148879
15368.783,0.98745179
15402.642,0.98273438
15436.651,0.9763667
15470.81,0.97072649
15505.12,0.96331689
15539.583,0.95609924
15574.199,0.94985504
15608.97,0.94653324
15643.896,0.93709622
15678.979,0.92439926
15714.22,0.90903866
15749.619,0.89683037
15785.178,0.8799753
15820.897,0.86225629
15856.779,0.84624884
15892.824,0.83623584
15929.033,0.81936557
15965.407,0.79754359
