Database of Origin,University of Winnipeg Spectrophotometer Facility
Sample Description,See Master Clays in HOSERLab database
Date Added,2016-12-11 20:56:55.152878

Data ID,FTIR_CLAY_04        
Sample ID,CRO101
Mineral Name,Cronstedtite
Grain Size,<45 m
Viewing Geometry,35/0
Resolution,11-72 nm
Material Class,Phyllosilicate

Wavelength
2001.142,0.16328121
2002.307,0.16333563
2003.474,0.1634829
2004.643,0.16333278
2005.812,0.16329207
2006.983,0.16366255
2008.155,0.16384981
2009.329,0.16381121
2010.504,0.16376682
2011.68,0.16388761
2012.858,0.16411753
2014.037,0.16424677
2015.217,0.16443357
2016.399,0.16456397
2017.582,0.16442637
2018.766,0.16433009
2019.952,0.16460951
2021.139,0.16486344
2022.328,0.1646751
2023.518,0.16445005
2024.709,0.16446914
2025.902,0.16454478
2027.096,0.16463325
2028.291,0.16472676
2029.488,0.16480857
2030.686,0.16480221
2031.886,0.16486412
2033.087,0.16519242
2034.289,0.1654421
2035.493,0.16553279
2036.698,0.16558234
2037.905,0.16566152
2039.113,0.16584513
2040.322,0.16598042
2041.533,0.16602329
2042.746,0.16617938
2043.959,0.16647824
2045.174,0.16662026
2046.391,0.1664643
2047.609,0.16650271
2048.828,0.1668046
2050.049,0.16677043
2051.271,0.16672527
2052.495,0.16683086
2053.72,0.1668011
2054.947,0.16692596
2056.175,0.16727059
2057.404,0.16750409
2058.635,0.16750683
2059.867,0.16750089
2061.101,0.16750306
2062.336,0.16743739
2063.573,0.16734868
2064.811,0.16731682
2066.051,0.16721043
2067.292,0.16709651
2068.534,0.16731859
2069.778,0.16762795
2071.024,0.16788989
2072.271,0.16791688
2073.519,0.16762001
2074.769,0.16766839
2076.02,0.16802419
2077.273,0.16836138
2078.528,0.16853148
2079.784,0.1683633
2081.041,0.1682238
2082.3,0.16820844
2083.56,0.16831599
2084.822,0.16857639
2086.085,0.16864262
2087.35,0.16865752
2088.617,0.16908034
2089.885,0.1694475
2091.154,0.16925359
2092.425,0.16904006
2093.697,0.16914141
2094.971,0.16920036
2096.247,0.16920175
2097.524,0.169513
2098.803,0.1698366
2100.083,0.16979812
2101.364,0.16973581
2102.648,0.16980943
2103.932,0.1699781
2105.219,0.17014215
2106.506,0.16987334
2107.796,0.16933432
2109.087,0.16928267
2110.379,0.1697367
2111.673,0.16994743
2112.969,0.16990299
2114.266,0.1700043
2115.565,0.16999494
2116.865,0.16994869
2118.167,0.17006328
2119.471,0.17018378
2120.776,0.17040756
2122.082,0.17066177
2123.391,0.17080464
2124.7,0.17088288
2126.012,0.17101582
2127.325,0.17133388
2128.64,0.17146073
2129.956,0.17139958
2131.274,0.17142278
2132.593,0.17140273
2133.914,0.17159038
2135.237,0.17167886
2136.561,0.17135314
2137.887,0.17119555
2139.214,0.1713296
2140.544,0.17159053
2141.874,0.17167749
2143.207,0.17142029
2144.541,0.1712991
2145.876,0.17149022
2147.214,0.17169927
2148.553,0.17192394
2149.893,0.17202643
2151.235,0.17186106
2152.579,0.17191254
2153.925,0.17210046
2155.272,0.17210784
2156.621,0.17203618
2157.972,0.1718588
2159.324,0.17183426
2160.678,0.17206382
2162.033,0.17225517
2163.39,0.17245444
2164.749,0.17263904
2166.11,0.17261127
2167.472,0.17274668
2168.836,0.1730245
2170.202,0.17295318
2171.569,0.17300095
2172.938,0.17318838
2174.309,0.17309163
2175.682,0.17308722
2177.056,0.17321981
2178.432,0.17334272
2179.809,0.17358764
2181.189,0.17374119
2182.57,0.17358352
2183.952,0.17348377
2185.337,0.17365437
2186.723,0.17373358
2188.111,0.17365662
2189.501,0.17371138
2190.892,0.17385928
2192.285,0.17392283
2193.68,0.1738338
2195.077,0.17378729
2196.476,0.17415092
2197.876,0.174416
2199.278,0.1742463
2200.682,0.17421701
2202.087,0.17430423
2203.494,0.17419829
2204.903,0.17416921
2206.314,0.17422548
2207.727,0.17426513
2209.141,0.17444575
2210.557,0.1745291
2211.975,0.17442072
2213.395,0.17429835
2214.817,0.17425251
2216.24,0.17415833
2217.665,0.1742807
2219.092,0.17476086
2220.521,0.17487201
2221.952,0.17475773
2223.384,0.17483269
2224.818,0.17469255
2226.254,0.17442215
2227.692,0.17436313
2229.132,0.17442657
2230.574,0.17451928
2232.017,0.17458256
2233.462,0.17458511
2234.91,0.17449394
2236.359,0.17436649
2237.809,0.17452128
2239.262,0.17473165
2240.717,0.17482376
2242.173,0.17502377
2243.631,0.17507065
2245.092,0.17485017
2246.554,0.17485626
2248.017,0.17510333
2249.483,0.17512166
2250.951,0.17505491
2252.421,0.17516708
2253.892,0.17527468
2255.365,0.1751809
2256.841,0.17509463
2258.318,0.17526577
2259.797,0.17522448
2261.278,0.17501
2262.761,0.17504659
2264.246,0.1750119
2265.732,0.17489767
2267.221,0.17485775
2268.712,0.17481098
2270.204,0.17478064
2271.699,0.17467923
2273.195,0.17459623
2274.694,0.17478792
2276.194,0.17491939
2277.696,0.17472419
2279.201,0.17458126
2280.707,0.17460757
2282.215,0.1746884
2283.725,0.17475715
2285.237,0.17459475
2286.752,0.17437758
2288.268,0.17438598
2289.786,0.17439258
2291.306,0.17422802
2292.828,0.17407005
2294.352,0.17414138
2295.878,0.17431671
2297.406,0.17437702
2298.936,0.17424658
2300.468,0.17398958
2302.002,0.17369185
2303.539,0.17352797
2305.077,0.17340973
2306.617,0.1729087
2308.159,0.17239604
2309.703,0.17217669
2311.25,0.17196992
2312.798,0.17182976
2314.348,0.17171156
2315.901,0.17108845
2317.455,0.17027357
2319.012,0.17022335
2320.571,0.17037405
2322.131,0.17003324
2323.694,0.16969602
2325.259,0.16974756
2326.826,0.17006665
2328.395,0.17039986
2329.966,0.17075928
2331.54,0.17114538
2333.115,0.17143337
2334.692,0.17145964
2336.272,0.17152827
2337.854,0.17194577
2339.437,0.17216492
2341.023,0.17223317
2342.611,0.17254054
2344.201,0.17272797
2345.794,0.17264043
2347.388,0.17247715
2348.985,0.17235026
2350.583,0.17243999
2352.184,0.17245935
2353.787,0.17237429
2355.393,0.17248161
2357.0,0.1725634
2358.609,0.17243221
2360.221,0.17206043
2361.835,0.17191154
2363.451,0.17209834
2365.069,0.17203067
2366.69,0.17176364
2368.312,0.17164787
2369.937,0.17159065
2371.564,0.17154318
2373.194,0.17157992
2374.825,0.171679
2376.459,0.17195621
2378.095,0.17215906
2379.733,0.17219752
2381.373,0.17257246
2383.016,0.1728265
2384.661,0.17265919
2386.308,0.17271162
2387.957,0.17286643
2389.609,0.17296728
2391.263,0.17317111
2392.919,0.1732375
2394.577,0.17334119
2396.238,0.17363133
2397.901,0.1736872
2399.566,0.17356248
2401.233,0.17362491
2402.903,0.17371948
2404.575,0.17366398
2406.25,0.17365888
2407.926,0.17371829
2409.606,0.17378344
2411.287,0.17382575
2412.971,0.17379189
2414.657,0.17384649
2416.345,0.17391425
2418.036,0.1739684
2419.729,0.17407068
2421.424,0.17412548
2423.122,0.17417441
2424.822,0.17425524
2426.524,0.17426725
2428.229,0.17429913
2429.936,0.17449003
2431.646,0.17470117
2433.358,0.1748412
2435.072,0.17490362
2436.789,0.17492295
2438.508,0.17508127
2440.229,0.17523072
2441.953,0.17508804
2443.679,0.17498555
2445.408,0.17514875
2447.139,0.17533834
2448.873,0.17538481
2450.609,0.17529457
2452.347,0.17516768
2454.088,0.17516261
2455.831,0.17528264
2457.577,0.17523506
2459.325,0.17500749
2461.076,0.17482899
2462.829,0.17484934
2464.585,0.17497141
2466.343,0.17503272
2468.104,0.1750479
2469.867,0.17493451
2471.632,0.17483754
2473.4,0.17481091
2475.171,0.17482162
2476.944,0.17500153
2478.72,0.17518912
2480.498,0.1752097
2482.278,0.1750379
2484.062,0.17479521
2485.847,0.17465122
2487.636,0.17462012
2489.427,0.17461358
2491.22,0.17462635
2493.016,0.17464958
2494.814,0.17465577
2496.615,0.17454916
2498.419,0.17437844
2500.225,0.17432864
2502.034,0.17441825
2503.845,0.17467024
2505.659,0.17475717
2507.476,0.17461526
2509.295,0.17460229
2511.117,0.17452118
2512.942,0.17439714
2514.769,0.17448755
2516.598,0.17458454
2518.431,0.1746091
2520.266,0.17457524
2522.103,0.17474828
2523.944,0.1749081
2525.787,0.17460391
2527.632,0.17443144
2529.48,0.17495604
2531.331,0.17559631
2533.185,0.17556642
2535.041,0.17547935
2536.9,0.17503458
2538.762,0.17423497
2540.627,0.17478965
2542.494,0.17595686
2544.364,0.17566158
2546.236,0.17536073
2548.112,0.17572144
2549.99,0.17618172
2551.87,0.17663356
2553.754,0.17573468
2555.64,0.17447842
2557.529,0.17476092
2559.421,0.1776571
2561.316,0.18189642
2563.213,0.18222996
2565.113,0.17841731
2567.016,0.17667235
2568.922,0.1776087
2570.831,0.17819928
2572.742,0.17903583
2574.656,0.17989095
2576.573,0.17908927
2578.493,0.17744379
2580.416,0.17800992
2582.342,0.18108905
2584.27,0.18175511
2586.201,0.18059555
2588.135,0.17990013
2590.072,0.17786515
2592.012,0.17957884
2593.955,0.18858902
2595.9,0.18744035
2597.849,0.1779994
2599.8,0.17598916
2601.755,0.17881117
2603.712,0.18253999
2605.672,0.18345991
2607.635,0.18055693
2609.601,0.17781618
2611.57,0.17611711
2613.542,0.17643903
2615.517,0.17988746
2617.495,0.18250765
2619.475,0.18178131
2621.459,0.17836232
2623.446,0.17539168
2625.435,0.17681435
2627.428,0.17965476
2629.424,0.1816895
2631.423,0.18149029
2633.424,0.17804135
2635.429,0.1751505
2637.437,0.17359499
2639.447,0.17348185
2641.461,0.17392183
2643.478,0.17459313
2645.498,0.17547359
2647.521,0.17443165
2649.547,0.17340912
2651.576,0.17507199
2653.609,0.17663885
2655.644,0.17548951
2657.682,0.17491428
2659.724,0.17640397
2661.768,0.17711625
2663.816,0.1807617
2665.867,0.18789651
2667.921,0.18885174
2669.978,0.18847386
2672.038,0.18332701
2674.102,0.1791008
2676.168,0.18396993
2678.238,0.18555623
2680.311,0.17786054
2682.387,0.17474259
2684.467,0.17608524
2686.549,0.17592467
2688.635,0.17361218
2690.724,0.17307805
2692.816,0.17799821
2694.911,0.18256282
2697.01,0.17781805
2699.112,0.17515362
2701.217,0.17726183
2703.325,0.17705405
2705.437,0.17605341
2707.552,0.18042816
2709.67,0.19002618
2711.791,0.19035495
2713.916,0.18027083
2716.044,0.17483152
2718.175,0.17941998
2720.31,0.1898244
2722.448,0.18817864
2724.589,0.17895119
2726.734,0.16604411
2728.882,0.15448105
2731.034,0.1481636
2733.188,0.14500378
2735.347,0.14172454
2737.508,0.13846635
2739.673,0.13915337
2741.841,0.13328053
2744.013,0.12178738
2746.188,0.11507228
2748.367,0.11166306
2750.549,0.10881783
2752.734,0.10680259
2754.923,0.10668429
2757.115,0.1029447
2759.311,0.09740014
2761.51,0.09507458
2763.713,0.09304094
2765.919,0.08975446
2768.129,0.08704617
2770.342,0.0844648
2772.559,0.08086545
2774.779,0.07756836
2777.003,0.07536851
2779.23,0.073633
2781.461,0.07192899
2783.696,0.06999395
2785.934,0.0687198
2788.175,0.06776401
2790.42,0.06588114
2792.669,0.0640702
2794.922,0.06290823
2797.178,0.06207999
2799.437,0.06135827
2801.7,0.06121261
2803.967,0.06090145
2806.238,0.05948754
2808.512,0.05842236
2810.789,0.05778048
2813.071,0.05721896
2815.356,0.05669299
2817.645,0.05602163
2819.937,0.05540084
2822.233,0.05485273
2824.533,0.05433875
2826.837,0.05398055
2829.144,0.0533528
2831.455,0.05257065
2833.77,0.0518805
2836.089,0.0511386
2838.411,0.0506032
2840.737,0.04999536
2843.067,0.04931154
2845.401,0.04885495
2847.739,0.04863524
2850.08,0.04839919
2852.425,0.04783585
2854.774,0.04734773
2857.127,0.04708552
2859.484,0.04691104
2861.844,0.04678798
2864.209,0.04657105
2866.577,0.04626387
2868.949,0.04573512
2871.325,0.0451798
2873.705,0.04485207
2876.089,0.04459332
2878.477,0.04456647
2880.869,0.04460171
2883.265,0.04430891
2885.664,0.04389452
2888.068,0.04397942
2890.476,0.04426853
2892.887,0.04386575
2895.303,0.04323471
2897.723,0.042914
2900.146,0.04257179
2902.574,0.04222791
2905.006,0.04210386
2907.441,0.04201173
2909.881,0.04178538
2912.325,0.04154879
2914.773,0.04164505
2917.225,0.04228084
2919.681,0.04240464
2922.142,0.04177196
2924.606,0.04099116
2927.075,0.04028129
2929.547,0.04009195
2932.024,0.03998316
2934.505,0.03975475
2936.99,0.03985594
2939.479,0.03974794
2941.973,0.03912874
2944.471,0.03925894
2946.973,0.04050307
2949.479,0.04045523
2951.989,0.03915352
2954.504,0.03923844
2957.023,0.03933323
2959.546,0.03804217
2962.073,0.03714135
2964.605,0.03701429
2967.141,0.03700684
2969.681,0.03702762
2972.226,0.03745157
2974.775,0.03854055
2977.328,0.03881631
2979.886,0.0378317
2982.448,0.03714331
2985.015,0.03699881
2987.586,0.03691298
2990.161,0.03727973
2992.74,0.03750332
2995.324,0.03689897
2997.913,0.0365683
3000.506,0.0370121
3003.103,0.03742509
3005.705,0.03695895
3008.312,0.0361975
3010.922,0.03624305
3013.538,0.03680311
3016.158,0.03702194
3018.782,0.03675989
3021.411,0.0365782
3024.044,0.03655386
3026.683,0.03673728
3029.325,0.03785455
3031.972,0.03944375
3034.624,0.03919472
3037.281,0.03761183
3039.942,0.03724155
3042.607,0.03783138
3045.278,0.03832061
3047.953,0.03801631
3050.632,0.03737611
3053.317,0.03724587
3056.006,0.03729014
3058.7,0.03747606
3061.398,0.03801487
3064.101,0.03883421
3066.809,0.03881543
3069.522,0.037895
3072.239,0.03739205
3074.962,0.03750853
3077.689,0.03807104
3080.421,0.03858472
3083.157,0.0385647
3085.899,0.03886232
3088.645,0.03955782
3091.396,0.03958597
3094.153,0.03943571
3096.914,0.03984878
3099.679,0.04079709
3102.45,0.0412131
3105.226,0.04051245
3108.007,0.04005779
3110.792,0.04021262
3113.583,0.04049291
3116.378,0.04069564
3119.179,0.04080694
3121.985,0.0410395
3124.795,0.04125235
3127.611,0.04147975
3130.431,0.04172244
3133.257,0.04184249
3136.088,0.04203016
3138.924,0.04230855
3141.765,0.0426457
3144.611,0.04291941
3147.462,0.04317236
3150.319,0.04369728
3153.18,0.0440776
3156.047,0.04427471
3158.919,0.04457724
3161.796,0.04484998
3164.678,0.04526439
3167.566,0.04571149
3170.458,0.045861
3173.356,0.0459737
3176.26,0.04654229
3179.168,0.04801355
3182.082,0.04907361
3185.001,0.04845274
3187.926,0.04771337
3190.856,0.0481483
3193.791,0.04941724
3196.731,0.04983135
3199.677,0.04936094
3202.629,0.04970188
3205.585,0.05014755
3208.548,0.05018787
3211.515,0.05143835
3214.488,0.05399921
3217.467,0.05536379
3220.451,0.05426399
3223.441,0.05309009
3226.436,0.05330919
3229.437,0.05329624
3232.443,0.05330285
3235.455,0.05393606
3238.472,0.05418637
3241.495,0.05459716
3244.523,0.05564137
3247.558,0.05638457
3250.598,0.0572703
3253.643,0.0587341
3256.694,0.05988986
3259.751,0.05951355
3262.814,0.05799123
3265.882,0.05782248
3268.956,0.05914421
3272.036,0.05974364
3275.122,0.05929419
3278.213,0.05938808
3281.31,0.06021342
3284.413,0.06095534
3287.522,0.06158227
3290.637,0.06201035
3293.757,0.06290538
3296.884,0.06401726
3300.016,0.06372782
3303.155,0.06351787
3306.299,0.06431594
3309.449,0.06441115
3312.605,0.06428913
3315.767,0.06476782
3318.936,0.06520679
3322.11,0.06579602
3325.29,0.06745861
3328.476,0.06952881
3331.669,0.06955435
3334.867,0.0679999
3338.072,0.06736156
3341.282,0.06767348
3344.499,0.06831274
3347.722,0.0691265
3350.952,0.07012361
3354.187,0.07039818
3357.429,0.06975736
3360.677,0.06992529
3363.931,0.0712229
3367.191,0.07207002
3370.458,0.07201962
3373.731,0.07191219
3377.01,0.07171797
3380.296,0.07179932
3383.588,0.07245627
3386.886,0.07302998
3390.191,0.07330219
3393.502,0.07405161
3396.82,0.07533099
3400.144,0.07616937
3403.475,0.07722205
3406.812,0.0782878
3410.156,0.07792668
3413.506,0.07725894
3416.862,0.07730315
3420.226,0.07816796
3423.596,0.07974002
3426.972,0.08034874
3430.355,0.08021993
3433.745,0.08086687
3437.141,0.0823866
3440.545,0.08471428
3443.954,0.08601653
3447.371,0.08508234
3450.794,0.08428429
3454.224,0.08463686
3457.661,0.08506711
3461.105,0.08573067
3464.556,0.08664063
3468.013,0.08691575
3471.477,0.08690757
3474.948,0.08739545
3478.426,0.08793241
3481.911,0.0881943
3485.403,0.08878503
3488.902,0.09062872
3492.408,0.09208436
3495.921,0.0913813
3499.441,0.09075122
3502.968,0.09141789
3506.502,0.09248736
3510.043,0.09318533
3513.592,0.09340895
3517.147,0.0939026
3520.71,0.09488092
3524.28,0.09590088
3527.857,0.09649228
3531.441,0.0978287
3535.032,0.09946939
3538.631,0.09949817
3542.237,0.09904737
3545.851,0.09923082
3549.471,0.09970599
3553.099,0.1003453
3556.735,0.10103691
3560.378,0.10158857
3564.028,0.10213853
3567.686,0.10319384
3571.351,0.10420861
3575.024,0.10450538
3578.704,0.10476076
3582.392,0.10573984
3586.088,0.10703422
3589.791,0.10750937
3593.501,0.10782742
3597.22,0.10865054
3600.946,0.10880569
3604.679,0.10875264
3608.421,0.10920737
3612.17,0.11013637
3615.926,0.11150353
3619.691,0.11218077
3623.463,0.11230367
3627.244,0.11265781
3631.032,0.1131145
3634.828,0.11360048
3638.632,0.1141954
3642.444,0.11488974
3646.263,0.11584353
3650.091,0.11705992
3653.927,0.11763728
3657.771,0.11766291
3661.623,0.11818665
3665.483,0.11909265
3669.351,0.11966767
3673.227,0.12013363
3677.111,0.12123612
3681.004,0.12260333
3684.905,0.12338511
3688.814,0.12371197
3692.731,0.12412445
3696.656,0.12478926
3700.59,0.12550854
3704.532,0.12616218
3708.483,0.12683038
3712.442,0.12756356
3716.409,0.12825904
3720.385,0.12894666
3724.37,0.12971574
3728.362,0.13049693
3732.364,0.13124757
3736.374,0.13201133
3740.392,0.13303874
3744.419,0.13447601
3748.455,0.13563879
3752.499,0.13617001
3756.553,0.13669158
3760.614,0.13735297
3764.685,0.13799597
3768.764,0.1388695
3772.853,0.1400141
3776.95,0.14095445
3781.056,0.14167606
3785.17,0.14260161
3789.294,0.14359267
3793.427,0.14448034
3797.568,0.14538647
3801.719,0.14633554
3805.879,0.14718919
3810.048,0.14803161
3814.225,0.14892747
3818.412,0.14984012
3822.609,0.15083202
3826.814,0.15167786
3831.029,0.15253031
3835.252,0.15366884
3839.486,0.15464732
3843.728,0.15531801
3847.98,0.15613063
3852.241,0.15713163
3856.512,0.15820443
3860.792,0.15929307
3865.081,0.16023107
3869.38,0.16113898
3873.689,0.16207149
3878.007,0.16286854
3882.334,0.16364829
3886.672,0.164636
3891.019,0.16577396
3895.375,0.16698487
3899.742,0.16800023
3904.118,0.16889854
3908.504,0.17010887
3912.9,0.17123375
3917.305,0.17217769
3921.721,0.17321285
3926.146,0.17428594
3930.581,0.17545251
3935.027,0.1766177
3939.482,0.17772995
3943.948,0.1788688
3948.423,0.1800263
3952.909,0.18129674
3957.405,0.18272
3961.911,0.18399291
3966.427,0.18519868
3970.954,0.18668475
3975.491,0.18818537
3980.038,0.18946012
3984.595,0.19065741
3989.163,0.19181229
3993.742,0.19283873
3998.33,0.19380183
4002.93,0.19476644
4007.54,0.19586377
4012.16,0.19716833
4016.791,0.19837746
4021.433,0.19931019
4026.086,0.20030049
4030.749,0.20145833
4035.423,0.20250854
4040.108,0.20369325
4044.804,0.2051785
4049.51,0.20665782
4054.228,0.20797965
4058.956,0.20930335
4063.695,0.21074335
4068.446,0.21230778
4073.207,0.21395821
4077.98,0.2154606
4082.764,0.2170201
4087.559,0.21897641
4092.365,0.22085508
4097.183,0.22225988
4102.012,0.22381057
4106.852,0.22573214
4111.703,0.22751747
4116.566,0.22927101
4121.441,0.23117637
4126.327,0.23306785
4131.224,0.23488344
4136.133,0.23671797
4141.054,0.23863754
4145.987,0.2404838
4150.931,0.24243745
4155.887,0.24464091
4160.854,0.24675777
4165.834,0.24876175
4170.826,0.25071633
4175.829,0.25258818
4180.844,0.25456767
4185.872,0.25700058
4190.911,0.26037193
4195.963,0.26554251
4201.026,0.27372799
4206.102,0.28602931
4211.19,0.30232959
4216.291,0.32080002
4221.404,0.33905465
4226.529,0.35560838
4231.666,0.36929949
4236.816,0.37743242
4241.979,0.37771623
4247.154,0.36960652
4252.341,0.35006086
4257.542,0.33458028
4262.754,0.34132857
4267.98,0.36051687
4273.219,0.36972546
4278.47,0.37095761
4283.734,0.37166775
4289.011,0.37322402
4294.301,0.37277859
4299.604,0.36997342
4304.92,0.36793785
4310.25,0.36489287
4315.592,0.35931189
4320.948,0.35393478
4326.317,0.35035993
4331.699,0.34727209
4337.095,0.3444964
4342.504,0.3429125
4347.926,0.34239395
4353.362,0.34232379
4358.811,0.34276691
4364.275,0.34382561
4369.751,0.34501684
4375.242,0.34635075
4380.746,0.34830951
4386.264,0.35087247
4391.796,0.35361634
4397.342,0.35629859
4402.902,0.35892994
4408.476,0.36156482
4414.064,0.36407636
4419.666,0.36648413
4425.282,0.36893713
4430.913,0.37123425
4436.558,0.37339749
4442.217,0.37563713
4447.891,0.37784252
4453.579,0.37991539
4459.281,0.38197182
4464.998,0.38405405
4470.73,0.38600789
4476.477,0.38784005
4482.238,0.3895495
4488.014,0.39128014
4493.805,0.39330841
4499.611,0.39537468
4505.431,0.39701076
4511.267,0.39853451
4517.118,0.40049696
4522.984,0.40253044
4528.865,0.40469357
4534.762,0.40714151
4540.674,0.40912475
4546.601,0.41058722
4552.543,0.41219594
4558.502,0.41416394
4564.475,0.41626129
4570.465,0.41858651
4576.47,0.42081715
4582.491,0.42275463
4588.527,0.42495731
4594.58,0.42710065
4600.648,0.42877104
4606.732,0.43050999
4612.833,0.4327129
4618.949,0.43493514
4625.082,0.43702604
4631.231,0.43914403
4637.397,0.44127423
4643.578,0.44329866
4649.777,0.44515303
4655.991,0.44719275
4662.223,0.44947196
4668.471,0.45163899
4674.735,0.45377007
4681.017,0.4561772
4687.315,0.45826527
4693.63,0.45998732
4699.962,0.46232554
4706.312,0.46462766
4712.678,0.46646999
4719.062,0.46853284
4725.463,0.47061914
4731.881,0.47240192
4738.316,0.47434422
4744.769,0.47675338
4751.24,0.47919186
4757.728,0.48113935
4764.234,0.48291815
4770.758,0.48538003
4777.299,0.48820112
4783.859,0.49062165
4790.436,0.49238309
4797.032,0.49349228
4803.645,0.49450356
4810.277,0.49610482
4816.927,0.49808454
4823.596,0.49998984
4830.283,0.50199383
4836.988,0.5048006
4843.712,0.50739856
4850.455,0.50852064
4857.216,0.50963979
4863.996,0.51133749
4870.795,0.51306645
4877.613,0.51490858
4884.451,0.51682269
4891.307,0.51923317
4898.182,0.52172529
4905.077,0.52297186
4911.991,0.52384626
4918.925,0.52533397
4925.878,0.52694541
4932.851,0.52870158
4939.844,0.53050682
4946.856,0.53294801
4953.888,0.53673105
4960.941,0.53848054
4968.013,0.5378408
4975.105,0.53873715
4982.218,0.54059879
4989.351,0.54209244
4996.504,0.54386109
5003.678,0.54537289
5010.872,0.54851319
5018.087,0.55404752
5025.323,0.55556133
5032.58,0.55347451
5039.857,0.553301
5047.156,0.55469971
5054.475,0.55632793
5061.816,0.55806223
5069.179,0.56001763
5076.562,0.56413344
5083.967,0.56802737
5091.394,0.56758147
5098.842,0.56720576
5106.312,0.56907935
5113.804,0.57085486
5121.318,0.57202599
5128.854,0.5735515
5136.412,0.57826839
5143.992,0.58584129
5151.595,0.58645473
5159.22,0.58164897
5166.868,0.58144918
5174.538,0.58348001
5182.231,0.58451413
5189.947,0.58815169
5197.686,0.59484201
5205.448,0.6006065
5213.233,0.60287322
5221.041,0.59855024
5228.873,0.59702779
5236.728,0.60094007
5244.607,0.60091997
5252.51,0.59998532
5260.436,0.60125255
5268.386,0.60479252
5276.36,0.60862361
5284.358,0.61301985
5292.381,0.61691517
5300.428,0.6145006
5308.499,0.61227196
5316.595,0.61370712
5324.715,0.61530344
5332.86,0.61715059
5341.031,0.62806119
5349.226,0.64348305
5357.446,0.6389924
5365.692,0.62767799
5373.962,0.62705725
5382.259,0.62869843
5390.581,0.62928849
5398.928,0.6318156
5407.302,0.64041528
5415.701,0.65821879
5424.127,0.6653677
5432.579,0.65349656
5441.057,0.64976753
5449.561,0.65694698
5458.092,0.67254102
5466.65,0.69039697
5475.234,0.69396134
5483.846,0.69157674
5492.484,0.69088884
5501.15,0.69935637
5509.843,0.71600269
5518.564,0.74134945
5527.312,0.76838786
5536.087,0.79827565
5544.891,0.86667527
5553.723,0.93149373
5562.582,0.85834086
5571.47,0.62212198
5580.387,0.46704454
5589.332,0.44850418
5598.305,0.46881901
5607.307,0.49247658
5616.339,0.51256946
5625.399,0.53007518
5634.489,0.55067211
5643.607,0.56700957
5652.756,0.57093086
5661.934,0.57251627
5671.142,0.580897
5680.379,0.58975693
5689.647,0.59250549
5698.945,0.59655153
5708.274,0.60797299
5717.633,0.61624078
5727.022,0.61745292
5736.443,0.62042133
5745.894,0.62314641
5755.377,0.63053727
5764.89,0.64188788
5774.436,0.63757937
5784.012,0.62754456
5793.621,0.62551591
5803.262,0.63183363
5812.934,0.64998606
5822.639,0.66418277
5832.376,0.65382312
5842.146,0.64402977
5851.948,0.65098705
5861.783,0.66319038
5871.652,0.67648322
5881.553,0.68836172
5891.488,0.68291306
5901.457,0.66684164
5911.459,0.66082931
5921.495,0.6722078
5931.565,0.69271184
5941.67,0.69029838
5951.809,0.67671144
5961.982,0.68010367
5972.19,0.68798846
5982.433,0.692535
5992.711,0.68705567
6003.025,0.68094007
6013.374,0.68236619
6023.759,0.67958765
6034.179,0.69519128
6044.636,0.71963293
6055.129,0.71394477
6065.658,0.71049721
6076.224,0.70345127
6086.826,0.68945267
6097.466,0.69878375
6108.143,0.71594953
6118.857,0.70658779
6129.609,0.69590897
6140.398,0.70190094
6151.226,0.70899123
6162.091,0.70888859
6172.996,0.71288691
6183.938,0.71753785
6194.92,0.71034737
6205.94,0.70797304
6217.0,0.71060193
6228.099,0.71127945
6239.237,0.71255209
6250.416,0.71377696
6261.635,0.71622765
6272.893,0.71831432
6284.193,0.71899933
6295.533,0.72007601
6306.914,0.72138937
6318.336,0.72376229
6329.799,0.73533329
6341.304,0.74417225
6352.851,0.74144201
6364.44,0.74519905
6376.071,0.74515924
6387.745,0.74378897
6399.461,0.76512954
6411.221,0.78761839
6423.023,0.77252467
6434.869,0.75623406
6446.759,0.75339328
6458.693,0.75792808
6470.671,0.77587815
6482.693,0.79489391
6494.76,0.78531153
6506.872,0.77253072
6519.029,0.77114232
6531.231,0.76937549
6543.48,0.77591891
6555.774,0.78869401
6568.114,0.79600246
6580.501,0.79390645
6592.934,0.78635303
6605.415,0.78332724
6617.943,0.79798665
6630.518,0.81032396
6643.141,0.78978571
6655.812,0.77862528
6668.532,0.78662093
6681.3,0.78496365
6694.117,0.7848695
6706.983,0.7939119
6719.899,0.7884463
6732.864,0.77818784
6745.879,0.77793151
6758.945,0.78486933
6772.062,0.79864776
6785.229,0.80247239
6798.448,0.79030681
6811.718,0.78825097
6825.039,0.79046141
6838.413,0.79558494
6851.84,0.81214485
6865.319,0.8077741
6878.851,0.79240112
6892.437,0.79145274
6906.076,0.7914503
6919.769,0.78733134
6933.517,0.79021303
6947.319,0.80165577
6961.176,0.80348102
6975.089,0.7982482
6989.057,0.79803761
7003.081,0.79857
7017.161,0.80230823
7031.298,0.81163805
7045.492,0.81326161
7059.743,0.80442151
7074.052,0.80065464
7088.419,0.80252508
7102.845,0.80579077
7117.329,0.80810721
7131.872,0.81212262
7146.475,0.81938592
7161.137,0.82011485
7175.86,0.81544507
7190.643,0.81690048
7205.487,0.8187536
7220.393,0.81579607
7235.36,0.81605692
7250.39,0.82049906
7265.481,0.82487596
7280.636,0.82462163
7295.854,0.82267946
7311.135,0.82502588
7326.481,0.83011388
7341.891,0.82978886
7357.366,0.82640884
7372.906,0.82617835
7388.512,0.82696838
7404.184,0.82795528
7419.922,0.82875438
7435.728,0.83175227
7451.601,0.83718875
7467.541,0.83779386
7483.55,0.83465136
7499.628,0.83394745
7515.774,0.83489806
7531.99,0.83596246
7548.277,0.83769534
7564.633,0.84010375
7581.061,0.84159323
7597.56,0.84200556
7614.131,0.84221642
7630.774,0.84251497
7647.491,0.84314835
7664.28,0.84385087
7681.143,0.84466412
7698.08,0.84553477
7715.093,0.84618228
7732.18,0.84700171
7749.343,0.84799609
7766.583,0.84844202
7783.899,0.84875341
7801.292,0.84932613
7818.764,0.84982107
7836.313,0.8506568
7853.942,0.85179918
7871.649,0.85251571
7889.437,0.85315291
7907.305,0.85420118
7925.254,0.8552059
7943.285,0.85584316
7961.398,0.85628341
7979.594,0.85682694
7997.872,0.85766945
8016.235,0.85852662
8034.682,0.85902365
8053.214,0.85946195
8071.832,0.86003362
8090.535,0.86052449
8109.326,0.86094092
8128.204,0.86124661
8147.169,0.86150079
8166.224,0.86179871
8185.368,0.86199753
8204.601,0.8620865
8223.925,0.86215647
8243.34,0.86216128
8262.847,0.86228991
8282.446,0.86262061
8302.139,0.86291132
8321.925,0.86316718
8341.805,0.86353064
8361.781,0.86403997
8381.852,0.86459169
8402.02,0.86519291
8422.285,0.86570582
8442.648,0.86593398
8463.109,0.86613626
8483.67,0.86646523
8504.331,0.86669197
8525.092,0.86689955
8545.955,0.86725246
8566.921,0.86754943
8587.989,0.86783211
8609.161,0.86826184
8630.437,0.86879826
8651.819,0.86926276
8673.307,0.86947364
8694.902,0.86973609
8716.604,0.87016277
8738.415,0.87040228
8760.335,0.87054654
8782.365,0.87091132
8804.507,0.87138991
8826.76,0.87173789
8849.125,0.87196482
8871.604,0.87231799
8894.198,0.87285913
8916.907,0.87325392
8939.732,0.87337706
8962.673,0.87344711
8985.733,0.87367297
9008.912,0.87404019
9032.21,0.87434418
9055.629,0.87455803
9079.17,0.87472802
9102.833,0.87481972
9126.62,0.8749173
9150.531,0.87492656
9174.568,0.87486338
9198.731,0.87484325
9223.022,0.87481964
9247.441,0.8748995
9271.99,0.87501734
9296.669,0.875144
9321.48,0.87524038
9346.423,0.87524072
9371.5,0.87530504
9396.712,0.87541127
9422.06,0.87562695
9447.545,0.87606908
9473.167,0.87658719
9498.929,0.87707028
9524.832,0.8775362
9550.876,0.87805884
9577.062,0.87868149
9603.393,0.87930008
9629.868,0.87982998
9656.49,0.88029421
9683.259,0.880818
9710.176,0.8814805
9737.244,0.88216608
9764.463,0.88283445
9791.834,0.88347387
9819.359,0.88413737
9847.039,0.88484626
9874.875,0.88549023
9902.869,0.88605797
9931.022,0.88651861
9959.336,0.88701417
9987.811,0.88758703
10016.449,0.88809807
10045.252,0.88863552
10074.221,0.88916404
10103.357,0.88959205
10132.662,0.8900375
10162.137,0.89064206
10191.784,0.8913104
10221.604,0.89177761
10251.6,0.89214098
10281.771,0.89260752
10312.121,0.89311241
10342.65,0.89363106
10373.36,0.89412065
10404.253,0.89455171
10435.331,0.89505361
10466.594,0.89553726
10498.045,0.89574556
10529.686,0.89591911
10561.517,0.89638769
10593.542,0.89675513
10625.761,0.89680203
10658.176,0.89694589
10690.79,0.89723256
10723.604,0.89724914
10756.619,0.8969271
10789.839,0.8966497
10823.264,0.89648767
10856.896,0.89623252
10890.738,0.89593752
10924.791,0.89564347
10959.058,0.89529312
10993.541,0.89491645
11028.24,0.89450573
11063.16,0.89416196
11098.301,0.89399181
11133.665,0.89388994
11169.256,0.89378024
11205.075,0.89374817
11241.124,0.89378709
11277.405,0.89388809
11313.921,0.8941008
11350.675,0.89431406
11387.667,0.89461653
11424.901,0.8948745
11462.38,0.89501543
11500.105,0.8953263
11538.079,0.89561406
11576.304,0.89570036
11614.783,0.8957066
11653.518,0.89584094
11692.513,0.89608551
11731.769,0.89623003
11771.29,0.89638497
11811.077,0.89648776
11851.134,0.89659858
11891.464,0.89674521
11932.068,0.89685017
11972.951,0.89708504
12014.114,0.89722524
12055.562,0.89705457
12097.296,0.89662972
12139.32,0.89613346
12181.636,0.89568588
12224.249,0.89574854
12267.16,0.89638977
12310.373,0.89689314
12353.892,0.89708699
12397.719,0.89704398
12441.859,0.89704084
12486.313,0.897138
12531.086,0.89717929
12576.18,0.89740549
12621.601,0.89759148
12667.35,0.89747316
12713.432,0.89742221
12759.85,0.89756414
12806.608,0.89773936
12853.71,0.89791679
12901.159,0.89809165
12948.96,0.8980396
12997.116,0.89779132
13045.631,0.8976246
13094.51,0.89784154
13143.756,0.89816474
13193.373,0.89796534
13243.366,0.89768564
13293.74,0.89758787
13344.497,0.8975593
13395.644,0.89772619
13447.183,0.89802757
13499.121,0.89809672
13551.461,0.8976955
13604.208,0.89761798
13657.367,0.89796247
13710.943,0.89803655
13764.941,0.89787659
13819.365,0.89737243
13874.221,0.8964864
13929.515,0.89574414
13985.25,0.8949788
14041.433,0.89411298
14098.068,0.89328341
14155.163,0.89177507
14212.721,0.89010042
14270.749,0.88858697
14329.252,0.88633079
14388.237,0.88348725
14447.709,0.88087044
14507.674,0.87830217
14568.139,0.87460741
14629.109,0.86962046
14690.592,0.86341898
14752.594,0.8556448
14815.121,0.84732193
14878.179,0.8411904
14941.777,0.83360262
15005.92,0.81944744
15070.616,0.8027348
15135.871,0.78355723
15201.695,0.76040417
15268.092,0.73191022
15335.072,0.69855853
15402.642,0.66429053
15470.81,0.6264165
15539.583,0.58291674
15608.97,0.5379768
15678.979,0.49324841
15749.619,0.45142042
15820.897,0.41401747
15892.824,0.37742475
15965.407,0.34260999
