Database of Origin,University of Winnipeg Spectrophotometer Facility
Sample Description,Carbonates and Oxolates -  D&P Spectra Reflectance spectra
Other Information,"Designs and Prototypes 102F spectra/Relative to infragold 1"" disk/Reflectance only"
Date Added,2018-08-06 21:06:09.618237

Data ID,FTIR_CARB_39_5      
Sample ID,CRB114
Mineral Name,magnesite
Locality,Currant Creek/ Nevada/ USA
Grain Size,<45 um
Viewing Geometry,i=35/ e=0
Resolution,~3 cm-1
Formula,Mg(CO3)
Composition,Magnesite plus other stuff- probably huntite; some broad and low angle peaks.

Wavelength
2.001142,0.68414703
2.002307,0.68475404
2.003474,0.68542479
2.004643,0.68635013
2.005812,0.68702032
2.006983,0.68754672
2.008155,0.68823573
2.009329,0.68783575
2.010504,0.69032531
2.01168,0.68872524
2.012858,0.69160053
2.014037,0.69010994
2.015217,0.69116871
2.016399,0.69166336
2.017582,0.69300989
2.018766,0.69274581
2.019952,0.69355028
2.021139,0.69432162
2.022328,0.69565354
2.023518,0.69558177
2.024709,0.69603034
2.025902,0.69508599
2.027096,0.69698715
2.028291,0.69589913
2.029488,0.69807401
2.030686,0.69722317
2.031886,0.69838026
2.033087,0.69841089
2.034289,0.69778907
2.035493,0.69925847
2.036698,0.70040227
2.037905,0.69922835
2.039113,0.70089981
2.040322,0.7011997
2.041533,0.7024861
2.042746,0.7022643
2.043959,0.70360592
2.045174,0.70322199
2.046391,0.70391275
2.047609,0.70393269
2.048828,0.70581122
2.050049,0.70430812
2.051271,0.70521921
2.052495,0.70436359
2.05372,0.70649411
2.054947,0.70606676
2.056175,0.70660038
2.057404,0.70671368
2.058635,0.70678288
2.059867,0.70775268
2.061101,0.70797199
2.062336,0.70751314
2.063573,0.70829583
2.064811,0.70806704
2.066051,0.70943395
2.067292,0.70774813
2.068534,0.7083958
2.069778,0.70884038
2.071024,0.70832658
2.072271,0.70749883
2.073519,0.70767855
2.074769,0.70695582
2.07602,0.70670342
2.077273,0.70670194
2.078528,0.70618217
2.079784,0.7059501
2.081041,0.70564489
2.0823,0.70549715
2.08356,0.7045797
2.084822,0.70451842
2.086085,0.70373859
2.08735,0.70304337
2.088617,0.70430159
2.089885,0.7030593
2.091154,0.70350344
2.092425,0.70403989
2.093697,0.70483905
2.094971,0.70405429
2.096247,0.70476627
2.097524,0.70567742
2.098803,0.70701587
2.100083,0.70673505
2.101364,0.70913405
2.102648,0.70929085
2.103932,0.71012267
2.105219,0.70969018
2.106506,0.71035147
2.107796,0.71226714
2.109087,0.71217667
2.110379,0.7135684
2.111673,0.71413311
2.112969,0.71296302
2.114266,0.71246688
2.115565,0.71212552
2.116865,0.71189007
2.118167,0.71092885
2.119471,0.71082892
2.120776,0.71027627
2.122082,0.71054502
2.123391,0.71018105
2.1247,0.71098301
2.126012,0.71155936
2.127325,0.71192045
2.12864,0.71172058
2.129956,0.71195048
2.131274,0.71293119
2.132593,0.71447866
2.133914,0.71444006
2.135237,0.71572205
2.136561,0.71423088
2.137887,0.71614564
2.139214,0.71633306
2.140544,0.71669355
2.141874,0.71608153
2.143207,0.71731767
2.144541,0.71866584
2.145876,0.71799223
2.147214,0.71886781
2.148553,0.71907593
2.149893,0.71942872
2.151235,0.71936769
2.152579,0.72010897
2.153925,0.71986645
2.155272,0.71878222
2.156621,0.72040958
2.157972,0.72010422
2.159324,0.72066198
2.160678,0.7195743
2.162033,0.71919993
2.16339,0.71890688
2.164749,0.71910942
2.16611,0.71873928
2.167472,0.71975468
2.168836,0.71862944
2.170202,0.71795487
2.171569,0.71803762
2.172938,0.71737951
2.174309,0.71745264
2.175682,0.71717095
2.177056,0.71732065
2.178432,0.71755205
2.179809,0.71629568
2.181189,0.71617011
2.18257,0.7159253
2.183952,0.71564288
2.185337,0.71523432
2.186723,0.71454806
2.188111,0.71457529
2.189501,0.71575289
2.190892,0.71562862
2.192285,0.71616522
2.19368,0.71538015
2.195077,0.71512126
2.196476,0.71465731
2.197876,0.71535257
2.199278,0.71394215
2.200682,0.71407086
2.202087,0.71503231
2.203494,0.71367498
2.204903,0.71358587
2.206314,0.71376591
2.207727,0.71297516
2.209141,0.71346254
2.210557,0.71252016
2.211975,0.71205348
2.213395,0.71061513
2.214817,0.71067775
2.21624,0.71021754
2.217665,0.70823631
2.219092,0.70844489
2.220521,0.70629294
2.221952,0.705435
2.223384,0.70416315
2.224818,0.70371969
2.226254,0.70311379
2.227692,0.70097133
2.229132,0.70106316
2.230574,0.69887343
2.232017,0.69871846
2.233462,0.69677846
2.23491,0.69483452
2.236359,0.69387087
2.237809,0.69415302
2.239262,0.69238537
2.240717,0.69053964
2.242173,0.68992366
2.243631,0.68860534
2.245092,0.68686622
2.246554,0.68614082
2.248017,0.68359567
2.249483,0.68202935
2.250951,0.68080406
2.252421,0.68064153
2.253892,0.67961649
2.255365,0.67864841
2.256841,0.67609125
2.258318,0.67605468
2.259797,0.67441233
2.261278,0.67152932
2.262761,0.6700607
2.264246,0.66791325
2.265732,0.6670203
2.267221,0.6659131
2.268712,0.66352192
2.270204,0.66371327
2.271699,0.66279629
2.273195,0.66234801
2.274694,0.66083031
2.276194,0.65939327
2.277696,0.65743482
2.279201,0.65582963
2.280707,0.65466781
2.282215,0.6537948
2.283725,0.65251064
2.285237,0.65083286
2.286752,0.64844264
2.288268,0.6455961
2.289786,0.64313483
2.291306,0.64146004
2.292828,0.64155272
2.294352,0.64023093
2.295878,0.63834112
2.297406,0.63670484
2.298936,0.63545512
2.300468,0.63291291
2.302002,0.63070032
2.303539,0.62734472
2.305077,0.62397644
2.306617,0.61977335
2.308159,0.6165358
2.309703,0.6115412
2.31125,0.60701246
2.312798,0.60392448
2.314348,0.5997994
2.315901,0.59722776
2.317455,0.59462022
2.319012,0.59245976
2.320571,0.59193961
2.322131,0.59266835
2.323694,0.59486716
2.325259,0.59885742
2.326826,0.60206254
2.328395,0.605309
2.329966,0.60610335
2.33154,0.60656589
2.333115,0.60572883
2.334692,0.60597562
2.336272,0.60500608
2.337854,0.60589076
2.339437,0.61024172
2.341023,0.61578262
2.342611,0.62341314
2.344201,0.63016815
2.345794,0.63686804
2.347388,0.64207764
2.348985,0.64674471
2.350583,0.64925059
2.352184,0.65155721
2.353787,0.65255512
2.355393,0.65578225
2.357,0.65455133
2.358609,0.654566
2.360221,0.65471885
2.361835,0.6548584
2.363451,0.65482538
2.365069,0.65309617
2.36669,0.65148428
2.368312,0.64991318
2.369937,0.64802157
2.371564,0.64590455
2.373194,0.64314927
2.374825,0.6409287
2.376459,0.63821608
2.378095,0.63593642
2.379733,0.63483263
2.381373,0.63314999
2.383016,0.63320338
2.384661,0.63383312
2.386308,0.63421499
2.387957,0.63402732
2.389609,0.63489691
2.391263,0.63276009
2.392919,0.63251289
2.394577,0.63024613
2.396238,0.63092024
2.397901,0.62875691
2.399566,0.62946444
2.401233,0.62837968
2.402903,0.62932742
2.404575,0.62969233
2.40625,0.63136232
2.407926,0.62887615
2.409606,0.62887408
2.411287,0.62996039
2.412971,0.62844256
2.414657,0.6270802
2.416345,0.62565158
2.418036,0.62332938
2.419729,0.62088815
2.421424,0.61819792
2.423122,0.61673126
2.424822,0.61449374
2.426524,0.61301337
2.428229,0.61201588
2.429936,0.61128231
2.431646,0.61075703
2.433358,0.60969699
2.435072,0.60980133
2.436789,0.60933961
2.438508,0.60889478
2.440229,0.60864167
2.441953,0.60768172
2.443679,0.60744343
2.445408,0.60602972
2.447139,0.60396032
2.448873,0.6033331
2.450609,0.60304324
2.452347,0.60168899
2.454088,0.60190002
2.455831,0.60124168
2.457577,0.60155781
2.459325,0.60065623
2.461076,0.60006926
2.462829,0.59902472
2.464585,0.59859425
2.466343,0.59685253
2.468104,0.59470192
2.469867,0.59491641
2.471632,0.5927758
2.4734,0.59067347
2.475171,0.58843444
2.476944,0.58697667
2.47872,0.58577186
2.480498,0.58396738
2.482278,0.58235282
2.484062,0.58114392
2.485847,0.57894566
2.487636,0.57738698
2.489427,0.57618119
2.49122,0.57439011
2.493016,0.57226086
2.494814,0.57035553
2.496615,0.56926895
2.498419,0.56736118
2.500225,0.56702052
2.502034,0.56641619
2.503845,0.56577033
2.505659,0.5646267
2.507476,0.56485137
2.509295,0.56522159
2.511117,0.5657425
2.512942,0.56623049
2.514769,0.56715585
2.516598,0.56803912
2.518431,0.56880979
2.520266,0.56947726
2.522103,0.57082705
2.523944,0.5727009
2.525787,0.57391599
2.527632,0.57425974
2.52948,0.57627101
2.531331,0.57836255
2.533185,0.57931983
2.535041,0.58009328
2.5369,0.58181033
2.538762,0.5813461
2.540627,0.58250638
2.542494,0.5827091
2.544364,0.58376468
2.546236,0.58298629
2.548112,0.58371226
2.54999,0.58329767
2.55187,0.58509693
2.553754,0.58444419
2.55564,0.58404406
2.557529,0.58437858
2.559421,0.58606064
2.561316,0.58875171
2.563213,0.59038015
2.565113,0.58694061
2.567016,0.5855466
2.568922,0.58777922
2.570831,0.58832165
2.572742,0.58909666
2.574656,0.59112441
2.576573,0.59111047
2.578493,0.59063735
2.580416,0.59093295
2.582342,0.59510202
2.58427,0.59516593
2.586201,0.59509245
2.588135,0.59549147
2.590072,0.59468303
2.592012,0.59357144
2.593955,0.60153999
2.5959,0.60069914
2.597849,0.59337395
2.5998,0.59249669
2.601755,0.59431985
2.603712,0.59509107
2.605672,0.59785164
2.607635,0.59371171
2.609601,0.59337382
2.61157,0.59146191
2.613542,0.59122808
2.615517,0.59213523
2.617495,0.5954616
2.619475,0.59090371
2.621459,0.59251613
2.623446,0.58535727
2.625435,0.58803795
2.627428,0.58614336
2.629424,0.58744005
2.631423,0.58456391
2.633424,0.58257403
2.635429,0.57879157
2.637437,0.57619945
2.639447,0.57298654
2.641461,0.57255378
2.643478,0.5677716
2.645498,0.56707022
2.647521,0.56147188
2.649547,0.55672046
2.651576,0.55453034
2.653609,0.55317461
2.655644,0.5465824
2.657682,0.54354548
2.659724,0.54011243
2.661768,0.53658942
2.663816,0.52998099
2.665867,0.53561102
2.667921,0.51960561
2.669978,0.51628701
2.672038,0.49934091
2.674102,0.48023284
2.676168,0.46214212
2.678238,0.44030693
2.680311,0.40397491
2.682387,0.37665653
2.684467,0.34529014
2.686549,0.31385502
2.688635,0.27223869
2.690724,0.2306479
2.692816,0.19001802
2.694911,0.16637153
2.69701,0.12748886
2.699112,0.10784285
2.701217,0.09454506
2.703325,0.09213032
2.705437,0.08633157
2.707552,0.09334638
2.70967,0.09861234
2.711791,0.11000952
2.713916,0.09640851
2.716044,0.10315348
2.718175,0.10295945
2.72031,0.1350204
2.722448,0.1235781
2.724589,0.13432551
2.726734,0.1226331
2.728882,0.11922328
2.731034,0.11424382
2.733188,0.11340322
2.735347,0.11024235
2.737508,0.10552378
2.739673,0.1077263
2.741841,0.10957972
2.744013,0.10108239
2.746188,0.10461089
2.748367,0.10552353
2.750549,0.11214504
2.752734,0.11443542
2.754923,0.12146614
2.757115,0.12092442
2.759311,0.12209146
2.76151,0.12460408
2.763713,0.12711156
2.765919,0.12396632
2.768129,0.12566462
2.770342,0.1238684
2.772559,0.12533659
2.774779,0.12241814
2.777003,0.12193291
2.77923,0.11929857
2.781461,0.11983255
2.783696,0.11706077
2.785934,0.11761399
2.788175,0.11595239
2.79042,0.11551387
2.792669,0.11384117
2.794922,0.11387065
2.797178,0.11260606
2.799437,0.1130111
2.8017,0.11135016
2.803967,0.11234205
2.806238,0.10895832
2.808512,0.10990125
2.810789,0.10836069
2.813071,0.10877291
2.815356,0.10646787
2.817645,0.10697919
2.819937,0.10549258
2.822233,0.10602079
2.824533,0.10438925
2.826837,0.10523184
2.829144,0.10298374
2.831455,0.1037821
2.83377,0.10217243
2.836089,0.10228512
2.838411,0.09980356
2.840737,0.10111827
2.843067,0.09868856
2.845401,0.09922136
2.847739,0.09728638
2.85008,0.09696012
2.852425,0.09597172
2.854774,0.09635376
2.857127,0.09424583
2.859484,0.09465555
2.861844,0.0933005
2.864209,0.0929453
2.866577,0.09291681
2.868949,0.09321614
2.871325,0.08983781
2.873705,0.09150134
2.876089,0.08990304
2.878477,0.09015553
2.880869,0.08885622
2.883265,0.0893081
2.885664,0.08772551
2.888068,0.08829328
2.890476,0.08809414
2.892887,0.08799737
2.895303,0.08587925
2.897723,0.08638079
2.900146,0.08407717
2.902574,0.08526793
2.905006,0.08301764
2.907441,0.08377639
2.909881,0.08291423
2.912325,0.0829355
2.914773,0.08127487
2.917225,0.08340232
2.919681,0.08223057
2.922142,0.08204408
2.924606,0.0809681
2.927075,0.08056628
2.929547,0.0797174
2.932024,0.08037903
2.934505,0.0792326
2.93699,0.08041986
2.939479,0.07930345
2.941973,0.07984696
2.944471,0.07905599
2.946973,0.08111362
2.949479,0.08128191
2.951989,0.07944097
2.954504,0.08002017
2.957023,0.08145134
2.959546,0.07867379
2.962073,0.07957396
2.964605,0.07873478
2.967141,0.07988333
2.969681,0.07893801
2.972226,0.08030085
2.974775,0.08130105
2.977328,0.08281562
2.979886,0.08034786
2.982448,0.08123109
2.985015,0.08088782
2.987586,0.08196547
2.990161,0.08164315
2.99274,0.08459453
2.995324,0.08243015
2.997913,0.08380326
3.000506,0.08394467
3.003103,0.08579543
3.005705,0.08482411
3.008312,0.08537472
3.010922,0.08552298
3.013538,0.08641695
3.016158,0.08733355
3.018782,0.08810196
3.021411,0.08798936
3.024044,0.08873364
3.026683,0.08865617
3.029325,0.09015469
3.031972,0.09249659
3.034624,0.09361348
3.037281,0.09031103
3.039942,0.09181984
3.042607,0.09248795
3.045278,0.09384355
3.047953,0.09274602
3.050632,0.09315943
3.053317,0.09333883
3.056006,0.09412666
3.0587,0.09378165
3.061398,0.09432518
3.064101,0.09566419
3.066809,0.09747421
3.069522,0.09460083
3.072239,0.09535083
3.074962,0.0952528
3.077689,0.09633348
3.080421,0.09625281
3.083157,0.09691136
3.085899,0.09666822
3.088645,0.09863731
3.091396,0.09717087
3.094153,0.0984594
3.096914,0.09808098
3.099679,0.09979587
3.10245,0.1011208
3.105226,0.10005217
3.108007,0.10016657
3.110792,0.10092248
3.113583,0.10098023
3.116378,0.10232302
3.119179,0.1020705
3.121985,0.103252
3.124795,0.10327382
3.127611,0.10486283
3.130431,0.10536117
3.133257,0.10624033
3.136088,0.10714157
3.138924,0.10768648
3.141765,0.10900142
3.144611,0.11005533
3.147462,0.11014544
3.150319,0.11208811
3.15318,0.11262022
3.156047,0.11392195
3.158919,0.11433503
3.161796,0.11586596
3.164678,0.11601609
3.167566,0.11795457
3.170458,0.11871846
3.173356,0.12029889
3.17626,0.12076096
3.179168,0.12291156
3.182082,0.12547639
3.185001,0.12459177
3.187926,0.12543191
3.190856,0.12658144
3.193791,0.12817646
3.196731,0.12994198
3.199677,0.12914979
3.202629,0.13118906
3.205585,0.13296551
3.208548,0.13334022
3.211515,0.13455276
3.214488,0.13908025
3.217467,0.14049626
3.220451,0.14114282
3.223441,0.13907293
3.226436,0.14332263
3.229437,0.14223515
3.232443,0.14382237
3.235455,0.14483207
3.238472,0.14645915
3.241495,0.1470556
3.244523,0.14984152
3.247558,0.15037754
3.250598,0.15197852
3.253643,0.15366509
3.256694,0.15427913
3.259751,0.15317416
3.262814,0.14803704
3.265882,0.14661899
3.268956,0.14685402
3.272036,0.14692585
3.275122,0.14613695
3.278213,0.14726192
3.28131,0.14979259
3.284413,0.15104729
3.287522,0.15380195
3.290637,0.15475557
3.293757,0.15634831
3.296884,0.15978627
3.300016,0.15873122
3.303155,0.15881195
3.306299,0.16079972
3.309449,0.16061183
3.312605,0.16092627
3.315767,0.16150321
3.318936,0.1621297
3.32211,0.16285239
3.32529,0.16402982
3.328476,0.16538091
3.331669,0.16571171
3.334867,0.16141354
3.338072,0.1618811
3.341282,0.16144598
3.344499,0.16356787
3.347722,0.16434517
3.350952,0.16672055
3.354187,0.16774142
3.357429,0.16701885
3.360677,0.16892719
3.363931,0.1710884
3.367191,0.17280515
3.370458,0.17252085
3.373731,0.17409267
3.37701,0.17378192
3.380296,0.1752725
3.383588,0.17630006
3.386886,0.17745352
3.390191,0.17831771
3.393502,0.17884979
3.39682,0.18055029
3.400144,0.17992643
3.403475,0.17984187
3.406812,0.17999642
3.410156,0.17713847
3.413506,0.17402825
3.416862,0.17272337
3.420226,0.17303868
3.423596,0.17492382
3.426972,0.17571868
3.430355,0.17709101
3.433745,0.17932441
3.437141,0.18194732
3.440545,0.18540525
3.443954,0.18925616
3.447371,0.18821307
3.450794,0.18915365
3.454224,0.1909578
3.457661,0.192416
3.461105,0.19401803
3.464556,0.19598396
3.468013,0.19715266
3.471477,0.19921643
3.474948,0.20224285
3.478426,0.205119
3.481911,0.21038265
3.485403,0.21559899
3.488902,0.22280606
3.492408,0.2317043
3.495921,0.23591075
3.499441,0.24229459
3.502968,0.24776468
3.506502,0.25388064
3.510043,0.25920585
3.513592,0.26379528
3.517147,0.26927772
3.52071,0.27399563
3.52428,0.2787944
3.527857,0.28191246
3.531441,0.2862592
3.535032,0.29372572
3.538631,0.29653702
3.542237,0.3004315
3.545851,0.30438421
3.549471,0.3076629
3.553099,0.31120087
3.556735,0.31481101
3.560378,0.31789371
3.564028,0.32089501
3.567686,0.32397169
3.571351,0.3275194
3.575024,0.32990251
3.578704,0.33281125
3.582392,0.33515418
3.586088,0.33833859
3.589791,0.34064271
3.593501,0.34278869
3.59722,0.34539204
3.600946,0.34701099
3.604679,0.348314
3.608421,0.35092577
3.61217,0.35252946
3.615926,0.35662651
3.619691,0.35795327
3.623463,0.35965698
3.627244,0.36110335
3.631032,0.36319457
3.634828,0.36492488
3.638632,0.36679201
3.642444,0.36881827
3.646263,0.37092777
3.650091,0.37256578
3.653927,0.37470484
3.657771,0.37579806
3.661623,0.3778454
3.665483,0.37917634
3.669351,0.38026827
3.673227,0.38182326
3.677111,0.38376375
3.681004,0.38491165
3.684905,0.38685033
3.688814,0.38769486
3.692731,0.38861745
3.696656,0.39012323
3.70059,0.39127564
3.704532,0.39234785
3.708483,0.39289465
3.712442,0.39271687
3.716409,0.39200386
3.720385,0.3908828
3.72437,0.38896041
3.728362,0.38582168
3.732364,0.3818118
3.736374,0.3782087
3.740392,0.37476877
3.744419,0.37141929
3.748455,0.36741146
3.752499,0.36262377
3.756553,0.35917224
3.760614,0.35391137
3.764685,0.34997768
3.768764,0.34507494
3.772853,0.34027374
3.77695,0.33441965
3.781056,0.33008359
3.78517,0.32486046
3.789294,0.32180344
3.793427,0.31772387
3.797568,0.31443632
3.801719,0.31227448
3.805879,0.31056331
3.810048,0.30843681
3.814225,0.3065281
3.818412,0.30487084
3.822609,0.30230414
3.826814,0.30001506
3.831029,0.29849287
3.835252,0.29681044
3.839486,0.29533184
3.843728,0.29335644
3.84798,0.29172412
3.852241,0.29136372
3.856512,0.29122659
3.860792,0.29137272
3.865081,0.29046281
3.86938,0.28930698
3.873689,0.28774207
3.878007,0.28409146
3.882334,0.27919701
3.886672,0.2738375
3.891019,0.26897619
3.895375,0.26453128
3.899742,0.2600922
3.904118,0.25676534
3.908504,0.25298219
3.9129,0.25065195
3.917305,0.24788194
3.921721,0.2452544
3.926146,0.24211658
3.930581,0.23936547
3.935027,0.23621076
3.939482,0.23309754
3.943948,0.23081393
3.948423,0.22928336
3.952909,0.2291586
3.957405,0.23127858
3.961911,0.2366628
3.966427,0.24374827
3.970954,0.25389464
3.975491,0.26595332
3.980038,0.27931387
3.984595,0.29255905
3.989163,0.30517014
3.993742,0.31828479
3.99833,0.33086737
4.00293,0.34278971
4.00754,0.35394111
4.01216,0.36598274
4.016791,0.37843764
4.021433,0.39106028
4.026086,0.40316291
4.030749,0.41556652
4.035423,0.42772412
4.040108,0.4379389
4.044804,0.44746955
4.04951,0.45602089
4.054228,0.46321276
4.058956,0.46962247
4.063695,0.4748348
4.068446,0.48003655
4.073207,0.48413528
4.07798,0.48838538
4.082764,0.49105493
4.087559,0.49457368
4.092365,0.49765189
4.097183,0.50020706
4.102012,0.50261166
4.106852,0.50502297
4.111703,0.50715952
4.116566,0.50895871
4.121441,0.51097213
4.126327,0.51195646
4.131224,0.51439703
4.136133,0.51561146
4.141054,0.5179892
4.145987,0.51970267
4.150931,0.52212846
4.155887,0.52328178
4.160854,0.52507016
4.165834,0.52695707
4.170826,0.52876584
4.175829,0.52974673
4.180844,0.53135554
4.185872,0.53280444
4.190911,0.53599095
4.195963,0.53907343
4.201026,0.54684406
4.206102,0.55913639
4.21119,0.5730356
4.216291,0.58669917
4.221404,0.60196139
4.226529,0.61434776
4.231666,0.62465646
4.236816,0.628199
4.241979,0.63220602
4.247154,0.62341993
4.252341,0.61304453
4.257542,0.58499381
4.262754,0.59745247
4.26798,0.6193374
4.273219,0.61851167
4.27847,0.62139157
4.283734,0.61770685
4.289011,0.62108598
4.294301,0.6213796
4.299604,0.61784346
4.30492,0.6157987
4.31025,0.61512541
4.315592,0.60782258
4.320948,0.60151198
4.326317,0.60057602
4.331699,0.59806387
4.337095,0.59451035
4.342504,0.59251246
4.347926,0.59158273
4.353362,0.59110635
4.358811,0.59092137
4.364275,0.59114069
4.369751,0.59131594
4.375242,0.59175784
4.380746,0.5923557
4.386264,0.59475873
4.391796,0.59618655
4.397342,0.59855844
4.402902,0.59991375
4.408476,0.60138074
4.414064,0.60333314
4.419666,0.60542022
4.425282,0.6066533
4.430913,0.60865091
4.436558,0.61031151
4.442217,0.61184849
4.447891,0.61325765
4.453579,0.61480918
4.459281,0.6160505
4.464998,0.61705114
4.47073,0.61943505
4.476477,0.61987412
4.482238,0.62108573
4.488014,0.62220836
4.493805,0.62341975
4.499611,0.62456344
4.505431,0.62547928
4.511267,0.62611439
4.517118,0.62679517
4.522984,0.62792908
4.528865,0.62935265
4.534762,0.62982889
4.540674,0.63005086
4.546601,0.63086154
4.552543,0.6312547
4.558502,0.63252416
4.564475,0.63308749
4.570465,0.63439285
4.57647,0.63596391
4.582491,0.63782676
4.588527,0.63934756
4.59458,0.64112272
4.600648,0.64270665
4.606732,0.64552199
4.612833,0.64792516
4.618949,0.64984707
4.625082,0.65224982
4.631231,0.65492345
4.637397,0.65745433
4.643578,0.65993673
4.649777,0.66256171
4.655991,0.66463245
4.662223,0.66709321
4.668471,0.66923835
4.674735,0.67224919
4.681017,0.6743299
4.687315,0.67549503
4.69363,0.67852891
4.699962,0.68085223
4.706312,0.68271212
4.712678,0.68472299
4.719062,0.68683304
4.725463,0.68791672
4.731881,0.69057335
4.738316,0.69186834
4.744769,0.69354177
4.75124,0.69591875
4.757728,0.69769778
4.764234,0.69914448
4.770758,0.70227393
4.777299,0.70284112
4.783859,0.70511633
4.790436,0.70656444
4.797032,0.70994517
4.803645,0.71084486
4.810277,0.71144794
4.816927,0.71152996
4.823596,0.71403076
4.830283,0.71490052
4.836988,0.7163824
4.843712,0.71836167
4.850455,0.71833988
4.857216,0.71996286
4.863996,0.72109605
4.870795,0.72216462
4.877613,0.72326211
4.884451,0.7245033
4.891307,0.7257578
4.898182,0.72776504
4.905077,0.72808202
4.911991,0.72891274
4.918925,0.73044649
4.925878,0.73187674
4.932851,0.73325203
4.939844,0.73483549
4.946856,0.73592724
4.953888,0.73823207
4.960941,0.74028088
4.968013,0.7394063
4.975105,0.74092834
4.982218,0.74156696
4.989351,0.74315687
4.996504,0.74347179
5.003678,0.74480148
5.010872,0.74402124
5.018087,0.74824422
5.025323,0.74783014
5.03258,0.74665408
5.039857,0.74652411
5.047156,0.74654792
5.054475,0.74727726
5.061816,0.74781934
5.069179,0.75026236
5.076562,0.75190362
5.083967,0.75605031
5.091394,0.75510681
5.098842,0.75681652
5.106312,0.7580366
5.113804,0.76031351
5.121318,0.76066254
5.128854,0.76217041
5.136412,0.76231436
5.143992,0.76777941
5.151595,0.76846328
5.15922,0.76372287
5.166868,0.76634989
5.174538,0.76529011
5.182231,0.76685203
5.189947,0.76524562
5.197686,0.77047781
5.205448,0.7685452
5.213233,0.77397688
5.221041,0.76774991
5.228873,0.76640912
5.236728,0.77003328
5.244607,0.7674911
5.25251,0.76824995
5.260436,0.76854281
5.268386,0.77017548
5.27636,0.77249004
5.284358,0.7717822
5.292381,0.77751949
5.300428,0.77215637
5.308499,0.77260402
5.316595,0.77261396
5.324715,0.77268865
5.33286,0.77285775
5.341031,0.7730079
5.349226,0.78743148
5.357446,0.7774972
5.365692,0.77144178
5.373962,0.77227677
5.382259,0.77022309
5.390581,0.76856319
5.398928,0.76755356
5.407302,0.76772371
5.415701,0.77561913
5.424127,0.78523924
5.432579,0.76252655
5.441057,0.77128337
5.449561,0.76413527
5.458092,0.77684461
5.46665,0.77955321
5.475234,0.77611997
5.483846,0.7745826
5.492484,0.76505452
5.50115,0.76939255
5.509843,0.76224402
5.518564,0.76763907
5.527312,0.76168933
5.536087,0.75034631
5.544891,0.75624415
5.553723,0.74915074
5.562582,0.72329572
5.57147,0.72412103
5.580387,0.71812064
5.589332,0.76266847
5.598305,0.79481684
5.607307,0.79637762
5.616339,0.8044103
5.625399,0.8033057
5.634489,0.80921507
5.643607,0.81459328
5.652756,0.81095264
5.661934,0.80533387
5.671142,0.81112121
5.680379,0.8129209
5.689647,0.81250799
5.698945,0.81320661
5.708274,0.81779336
5.717633,0.82401505
5.727022,0.81316148
5.736443,0.82304784
5.745894,0.82063815
5.755377,0.81830554
5.76489,0.83750635
5.774436,0.82654407
5.784012,0.81510183
5.793621,0.82101683
5.803262,0.816394
5.812934,0.83455466
5.822639,0.85116025
5.832376,0.83425264
5.842146,0.82108021
5.851948,0.83219081
5.861783,0.83635765
5.871652,0.8456972
5.881553,0.86405452
5.891488,0.85260472
5.901457,0.84295808
5.911459,0.83175079
5.921495,0.84164198
5.931565,0.85897163
5.94167,0.86467482
5.951809,0.832829
5.961982,0.86042582
5.97219,0.84872069
5.982433,0.86152302
5.992711,0.85297813
6.003025,0.84612768
6.013374,0.85694586
6.023759,0.84760529
6.034179,0.85065023
6.044636,0.90723004
6.055129,0.86292518
6.065658,0.87520805
6.076224,0.87237191
6.086826,0.85514614
6.097466,0.86146824
6.108143,0.88849407
6.118857,0.87465065
6.129609,0.86193166
6.140398,0.87439161
6.151226,0.87345874
6.162091,0.87787406
6.172996,0.87002401
6.183938,0.8942763
6.19492,0.86790314
6.20594,0.87898252
6.217,0.87427141
6.228099,0.87896198
6.239237,0.8778207
6.250416,0.87918782
6.261635,0.87862867
6.272893,0.88328448
6.284193,0.88030729
6.295533,0.88337776
6.306914,0.88170813
6.318336,0.88491721
6.329799,0.88566921
6.341304,0.9082311
6.352851,0.88361323
6.36444,0.90185708
6.376071,0.89301641
6.387745,0.89145181
6.399461,0.90067813
6.411221,0.9398695
6.423023,0.90208159
6.434869,0.90446964
6.446759,0.89557945
6.458693,0.9024519
6.470671,0.90656358
6.482693,0.93091904
6.49476,0.91854398
6.506872,0.90376679
6.519029,0.91432539
6.531231,0.902271
6.54348,0.91249858
6.555774,0.91574108
6.568114,0.92634275
6.580501,0.91963549
6.592934,0.9175025
6.605415,0.91299475
6.617943,0.91958165
6.630518,0.94330853
6.643141,0.91755643
6.655812,0.9110166
6.668532,0.92321887
6.6813,0.91888768
6.694117,0.91340733
6.706983,0.92889335
6.719899,0.91935638
6.732864,0.91553941
6.745879,0.91601639
6.758945,0.92019246
6.772062,0.92673715
6.785229,0.9370222
6.798448,0.92000783
6.811718,0.9235921
6.825039,0.92859448
6.838413,0.92087242
6.85184,0.94477095
6.865319,0.93812897
6.878851,0.92321687
6.892437,0.9309309
6.906076,0.92791824
6.919769,0.92857112
6.933517,0.92482104
6.947319,0.93798312
6.961176,0.93693083
6.975089,0.93051771
6.989057,0.93628315
7.003081,0.93186085
7.017161,0.93562341
7.031298,0.93947384
7.045492,0.94744676
7.059743,0.93260729
7.074052,0.93830614
7.088419,0.93457574
7.102845,0.9410771
7.117329,0.93848363
7.131872,0.94120125
7.146475,0.94473544
7.161137,0.94759595
7.17586,0.94312395
7.190643,0.94528526
7.205487,0.94971368
7.220393,0.94341911
7.23536,0.94810462
7.25039,0.94692387
7.265481,0.9531932
7.280636,0.95032232
7.295854,0.95142997
7.311135,0.95091752
7.326481,0.95676481
7.341891,0.95605762
7.357366,0.95378265
7.372906,0.95537966
7.388512,0.95531862
7.404184,0.95649495
7.419922,0.95692543
7.435728,0.95820872
7.451601,0.96130586
7.467541,0.96192009
7.48355,0.95937147
7.499628,0.96111697
7.515774,0.96144422
7.53199,0.96277619
7.548277,0.96314758
7.564633,0.96467281
7.581061,0.96543093
7.59756,0.96608325
7.614131,0.96617463
7.630774,0.96653646
7.647491,0.96699536
7.66428,0.96724704
7.681143,0.96780374
7.69808,0.96862331
7.715093,0.96905615
7.73218,0.96946918
7.749343,0.9704832
7.766583,0.97014472
7.783899,0.97057952
7.801292,0.97113937
7.818764,0.97116835
7.836313,0.97162319
7.853942,0.97241699
7.871649,0.97296501
7.889437,0.97349669
7.907305,0.97399112
7.925254,0.97438022
7.943285,0.97457646
7.961398,0.9751249
7.979594,0.97541944
7.997872,0.97574477
8.016235,0.9763305
8.034682,0.97696405
8.053214,0.97750708
8.071832,0.97817571
8.090535,0.97852497
8.109326,0.97918037
8.128204,0.97930271
8.147169,0.97973872
8.166224,0.98037251
8.185368,0.98073646
8.204601,0.98097632
8.223925,0.98131097
8.24334,0.98154587
8.262847,0.98198205
8.282446,0.98219014
8.302139,0.98274726
8.321925,0.98326128
8.341805,0.98333554
8.361781,0.98347217
8.381852,0.98398453
8.40202,0.98445805
8.422285,0.98477133
8.442648,0.98514612
8.463109,0.98544468
8.48367,0.98605971
8.504331,0.98689293
8.525092,0.98708032
8.545955,0.98724026
8.566921,0.98775459
8.587989,0.98793458
8.609161,0.98852629
8.630437,0.98882996
8.651819,0.98899958
8.673307,0.98942748
8.694902,0.98946197
8.716604,0.9898281
8.738415,0.98963564
8.760335,0.98966202
8.782365,0.99023766
8.804507,0.99041435
8.82676,0.9906043
8.849125,0.9904437
8.871604,0.99064022
8.894198,0.99113831
8.916907,0.99166257
8.939732,0.9917759
8.962673,0.99179208
8.985733,0.99203671
9.008912,0.9924754
9.03221,0.99225813
9.055629,0.99286805
9.07917,0.99282405
9.102833,0.99317365
9.12662,0.9930439
9.150531,0.99298343
9.174568,0.99307754
9.198731,0.99349896
9.223022,0.99319476
9.247441,0.99386775
9.27199,0.99293227
9.296669,0.99352681
9.32148,0.99308114
9.346423,0.99350012
9.3715,0.99333031
9.396712,0.99366265
9.42206,0.99330912
9.447545,0.99368196
9.473167,0.9934823
9.498929,0.99363284
9.524832,0.99403929
9.550876,0.99395979
9.577062,0.99402495
9.603393,0.99449554
9.629868,0.99458539
9.65649,0.99474075
9.683259,0.99438514
9.710176,0.99517138
9.737244,0.99511907
9.764463,0.9954965
9.791834,0.9951908
9.819359,0.9960924
9.847039,0.99573597
9.874875,0.99657979
9.902869,0.99621248
9.931022,0.9966659
9.959336,0.9965119
9.987811,0.99716873
10.016449,0.99664428
10.045252,0.99735942
10.074221,0.99705795
10.103357,0.99730538
10.132662,0.99738012
10.162137,0.99759081
10.191784,0.9973669
10.221604,0.99797527
10.2516,0.99793544
10.281771,0.99853988
10.312121,0.99782844
10.34265,0.99865642
10.37336,0.99830427
10.404253,0.9989579
10.435331,0.99846838
10.466594,0.99919826
10.498045,0.99899189
10.529686,0.99962268
10.561517,0.9990497
10.593542,0.99941281
10.625761,0.99935041
10.658176,0.0100011002
10.69079,0.99973665
10.723604,0.0100041315
10.756619,0.0100002884
10.789839,0.0100078041
10.823264,0.0100032622
10.856896,0.0100055336
10.890738,0.99994063
10.924791,0.0100044599
10.959058,0.99983022
10.993541,0.0100076475
11.02824,0.99998664
11.06316,0.0100026393
11.098301,0.0100012437
11.133665,0.0100034146
11.169256,0.99979069
11.205075,0.0100054123
11.241124,0.99949282
11.277405,0.99990789
11.313921,0.99975847
11.350675,0.0100044934
11.387667,0.99957165
11.424901,0.0100080548
11.46238,0.0100010898
11.500105,0.0100087163
11.538079,0.0100046646
11.576304,0.0100115524
11.614783,0.0100006139
11.653518,0.0100111954
11.692513,0.0100030493
11.731769,0.0100095487
11.77129,0.0100007152
11.811077,0.0100064698
11.851134,0.99993192
11.891464,0.0100078979
11.932068,0.9996882
11.972951,0.0100047727
12.014114,0.9997109
12.055562,0.010005421
12.097296,0.99916723
12.13932,0.0100061835
12.181636,0.99930297
12.224249,0.0100041367
12.26716,0.99955328
12.310373,0.0100102144
12.353892,0.9998972
12.397719,0.0100069939
12.441859,0.99983891
12.486313,0.0100086641
12.531086,0.9999372
12.57618,0.0100088536
12.621601,0.0100048496
12.66735,0.0100136219
12.713432,0.99999024
12.75985,0.0100144808
12.806608,0.0100005635
12.85371,0.0100096572
12.901159,0.9996451
12.94896,0.0100058267
12.997116,0.99964721
13.045631,0.0100043948
13.09451,0.99946787
13.143756,0.99981585
13.193373,0.99910016
13.243366,0.9997231
13.29374,0.99831896
13.344497,0.0100004206
13.395644,0.99855743
13.447183,0.99900137
13.499121,0.99821959
13.551461,0.99963266
13.604208,0.99843828
13.657367,0.99901395
13.710943,0.99772658
13.764941,0.99906072
13.819365,0.99833748
13.874221,0.99959697
13.929515,0.99679612
13.98525,0.99881374
14.041433,0.99712605
14.098068,0.99845859
14.155163,0.99644418
14.212721,0.99669235
14.270749,0.99447399
14.329252,0.99560123
14.388237,0.99343958
14.447709,0.99361776
14.507674,0.99054061
14.568139,0.9912709
14.629109,0.98724444
14.690592,0.99015594
14.752594,0.98310569
14.815121,0.98558583
14.878179,0.97721894
14.941777,0.97945118
15.00592,0.96923956
15.070616,0.97157394
15.135871,0.95717341
15.201695,0.95841785
15.268092,0.93915254
15.335072,0.9364516
15.402642,0.90839319
15.47081,0.90742827
15.539583,0.86734244
15.60897,0.86043897
15.678979,0.80074953
15.749619,0.7878188
15.820897,0.73104335
15.892824,0.74738433
15.965407,0.65707735
