Database of Origin,University of Winnipeg Spectrophotometer Facility
Sample Description,16.11. Meteorites - HEDs 16.11.3. NASA samples (4) Bruker Vertex 70 FTIR spectrometer
Other Information,MIR Glowbar KBr Beam Splitter MCT cryo cooled Dectect.
Date Added,2018-07-23 23:49:05.531153

Data ID,FTIR_MET2_6_18      
Sample ID,NWA 2968
Mineral Name,Dunitic diogenite
Grain Size,90-250 um
Viewing Geometry,i30/ e0
Resolution,7.71cm-1

Wavelength
1672.316177,0.1931
1674.476792,0.1936
1676.642997,0.19357
1678.814814,0.19324
1680.992268,0.19274
1683.175374,0.19226
1685.364158,0.1923
1687.558643,0.19233
1689.758849,0.19182
1691.9648,0.19174
1694.176519,0.19215
1696.394027,0.19208
1698.61735,0.19176
1700.846507,0.19204
1703.081521,0.19223
1705.322418,0.19177
1707.569219,0.19133
1709.821949,0.1909
1712.08063,0.19083
1714.345286,0.19144
1716.615945,0.19183
1718.892624,0.19174
1721.175349,0.19177
1723.464146,0.19172
1725.759038,0.1913
1728.060049,0.19108
1730.367205,0.19091
1732.68053,0.19039
1735.000051,0.19027
1737.325788,0.19051
1739.657769,0.19048
1741.996018,0.19026
1744.340562,0.18993
1746.691425,0.18961
1749.048633,0.18974
1751.412211,0.19003
1753.78219,0.18991
1756.158588,0.18959
1758.541435,0.18912
1760.930758,0.18888
1763.326581,0.18912
1765.728933,0.18938
1768.13784,0.18944
1770.553328,0.18954
1772.975429,0.1895
1775.404162,0.18908
1777.839558,0.18863
1780.281645,0.18853
1782.73045,0.18894
1785.186001,0.18961
1787.648326,0.18975
1790.117454,0.18905
1792.593414,0.18837
1795.07623,0.1883
1797.565933,0.18835
1800.062552,0.18838
1802.566116,0.18835
1805.076653,0.18818
1807.594193,0.18804
1810.118766,0.18792
1812.650403,0.18768
1815.189129,0.18721
1817.734976,0.18684
1820.287974,0.18676
1822.848154,0.18686
1825.415545,0.18683
1827.990179,0.18686
1830.572085,0.18702
1833.161299,0.18679
1835.757844,0.18609
1838.361756,0.18571
1840.973065,0.18599
1843.591803,0.18654
1846.218001,0.1865
1848.851693,0.18601
1851.492909,0.18627
1854.141686,0.18656
1856.798049,0.18623
1859.462034,0.18568
1862.133675,0.18551
1864.813003,0.18566
1867.500053,0.18578
1870.194858,0.18585
1872.897451,0.18589
1875.60787,0.18584
1878.326142,0.18558
1881.052305,0.18565
1883.786392,0.18584
1886.528439,0.18578
1889.27848,0.18549
1892.03655,0.18508
1894.802685,0.18477
1897.576923,0.18445
1900.359294,0.18416
1903.149835,0.18421
1905.948585,0.1843
1908.755578,0.18446
1911.570851,0.1845
1914.394441,0.18418
1917.226385,0.18403
1920.066724,0.18378
1922.915487,0.18381
1925.772716,0.18431
1928.638449,0.1843
1931.512723,0.18397
1934.395578,0.18388
1937.28705,0.18404
1940.18718,0.18432
1943.09601,0.18433
1946.013571,0.18406
1948.939907,0.18403
1951.875057,0.18413
1954.819061,0.18393
1957.771959,0.18381
1960.733792,0.18386
1963.7046,0.18372
1966.684429,0.18354
1969.67331,0.18335
1972.671291,0.18323
1975.678411,0.18318
1978.694713,0.18307
1981.72024,0.18289
1984.755033,0.18294
1987.799135,0.1832
1990.852594,0.18316
1993.915443,0.18299
1996.987732,0.18285
2000.069502,0.18266
2003.160799,0.18256
2006.261667,0.18251
2009.37215,0.18237
2012.492292,0.18221
2015.622144,0.18226
2018.761742,0.18248
2021.911136,0.18262
2025.070371,0.18286
2028.239495,0.18287
2031.418553,0.18239
2034.607593,0.18202
2037.806661,0.18213
2041.015809,0.18239
2044.235076,0.18243
2047.464515,0.18233
2050.704173,0.18228
2053.9541,0.18232
2057.214344,0.18226
2060.484955,0.18201
2063.765981,0.18189
2067.057478,0.18211
2070.359486,0.18236
2073.672061,0.18224
2076.995253,0.18212
2080.329113,0.18234
2083.673693,0.18249
2087.029044,0.18248
2090.39522,0.18234
2093.772276,0.18216
2097.160256,0.18232
2100.559219,0.18235
2103.969217,0.18196
2107.390304,0.18199
2110.822536,0.18217
2114.265965,0.18189
2117.720647,0.18175
2121.186643,0.18179
2124.663997,0.18184
2128.152772,0.18186
2131.653022,0.18181
2135.164806,0.18182
2138.68818,0.18168
2142.223201,0.18158
2145.769927,0.18164
2149.328422,0.18167
2152.898735,0.18184
2156.480928,0.18205
2160.075063,0.18193
2163.681197,0.18173
2167.299393,0.1816
2170.929709,0.18147
2174.572208,0.18145
2178.226956,0.18174
2181.894004,0.18199
2185.57342,0.18193
2189.265266,0.18201
2192.969606,0.1822
2196.686503,0.18214
2200.416021,0.18202
2204.158225,0.18199
2207.913183,0.18209
2211.680953,0.18222
2215.461603,0.1821
2219.255201,0.18197
2223.061813,0.18212
2226.881507,0.18196
2230.714349,0.1816
2234.560407,0.18161
2238.419756,0.18167
2242.292454,0.18175
2246.178575,0.18179
2250.07819,0.18153
2253.991369,0.18126
2257.918183,0.18127
2261.858702,0.18135
2265.813,0.18153
2269.781154,0.18179
2273.763225,0.18188
2277.759293,0.18187
2281.769432,0.18208
2285.793716,0.18234
2289.832221,0.18222
2293.88502,0.18197
2297.952192,0.18178
2302.033816,0.1815
2306.129961,0.18135
2310.240709,0.18155
2314.366139,0.18181
2318.506328,0.18177
2322.661356,0.18167
2326.831304,0.18187
2331.016252,0.18212
2335.216286,0.18216
2339.431477,0.18214
2343.661913,0.18204
2347.907677,0.18193
2352.168852,0.18198
2356.445521,0.182
2360.737771,0.18188
2365.045686,0.18194
2369.369358,0.18226
2373.708861,0.18261
2378.06429,0.18281
2382.435731,0.18284
2386.823273,0.18292
2391.227005,0.18309
2395.647017,0.18295
2400.0834,0.18261
2404.53625,0.18256
2409.005647,0.1827
2413.491691,0.1828
2417.994473,0.18292
2422.514088,0.18294
2427.050631,0.18286
2431.604196,0.18298
2436.17488,0.18316
2440.762785,0.18311
2445.367997,0.18302
2449.99062,0.1831
2454.630753,0.18326
2459.288496,0.18336
2463.963948,0.18344
2468.657212,0.18344
2473.368389,0.18342
2478.097588,0.18359
2482.844901,0.18368
2487.610438,0.18369
2492.394303,0.18377
2497.196603,0.18383
2502.017445,0.18382
2506.856937,0.18382
2511.715186,0.18385
2516.592308,0.18363
2521.488402,0.18326
2526.403583,0.1832
2531.337964,0.1834
2536.291658,0.18357
2541.264778,0.18344
2546.257439,0.1831
2551.269756,0.18323
2556.301852,0.18358
2561.353831,0.18304
2566.425818,0.18247
2571.517932,0.18257
2576.630293,0.18247
2581.763021,0.18236
2586.91624,0.18235
2592.090072,0.18197
2597.284647,0.1817
2602.500077,0.18184
2607.736495,0.1821
2612.994027,0.1826
2618.272802,0.18272
2623.572949,0.18297
2628.894597,0.18304
2634.237878,0.18352
2639.60293,0.18444
2644.989874,0.18464
2650.398851,0.18455
2655.829995,0.18465
2661.283444,0.1846
2666.759335,0.18368
2672.257807,0.18272
2677.779,0.18286
2683.323062,0.18387
2688.890121,0.18472
2694.480328,0.18478
2700.093828,0.18484
2705.730766,0.1846
2711.39129,0.18348
2717.075548,0.18213
2722.783689,0.18095
2728.515871,0.18129
2734.272233,0.18123
2740.052934,0.1795
2745.85813,0.17922
2751.687977,0.17962
2757.542631,0.17883
2763.422252,0.17781
2769.327,0.17751
2775.257043,0.17787
2781.212529,0.17797
2787.19363,0.17756
2793.200512,0.17739
2799.233341,0.17715
2805.292287,0.17669
2811.377519,0.17688
2817.489208,0.17692
2823.627536,0.17687
2829.79266,0.17712
2835.984766,0.17724
2842.20403,0.17738
2848.450631,0.17731
2854.72475,0.17702
2861.02657,0.17688
2867.356274,0.17686
2873.714055,0.17694
2880.100086,0.17704
2886.514561,0.17709
2892.957673,0.17717
2899.429613,0.17714
2905.930575,0.17702
2912.460755,0.17705
2919.020351,0.17707
2925.609569,0.17697
2932.228594,0.17692
2938.877637,0.17674
2945.556904,0.17648
2952.266599,0.17648
2959.006933,0.17679
2965.778115,0.17709
2972.580357,0.17715
2979.413883,0.17708
2986.278891,0.17694
2993.175608,0.17676
3000.104254,0.17671
3007.065051,0.17702
3014.058225,0.17731
3021.084,0.17723
3028.142607,0.17715
3035.234283,0.17713
3042.359245,0.17717
3049.517737,0.17727
3056.709994,0.17719
3063.936258,0.17716
3071.196769,0.17745
3078.491772,0.17781
3085.821513,0.17799
3093.186251,0.17806
3100.586217,0.17809
3108.021674,0.17813
3115.492879,0.17828
3123.000089,0.17856
3130.543567,0.17877
3138.123574,0.1788
3145.740377,0.17885
3153.394256,0.17908
3161.08546,0.1793
3168.814274,0.1795
3176.580974,0.17961
3184.38584,0.17944
3192.229154,0.17942
3200.1112,0.17992
3208.032266,0.18057
3215.992653,0.18102
3223.992633,0.18133
3232.032514,0.18163
3240.112594,0.18187
3248.233176,0.1821
3256.394564,0.18251
3264.597068,0.18292
3272.840999,0.18303
3281.126681,0.18288
3289.454413,0.18284
3297.824524,0.1833
3306.237341,0.18401
3314.693189,0.18449
3323.192401,0.18483
3331.735311,0.18513
3340.322256,0.18534
3348.95359,0.18564
3357.629634,0.18604
3366.350748,0.18629
3375.117285,0.18632
3383.929601,0.18632
3392.788054,0.18641
3401.693008,0.18643
3410.64483,0.18628
3419.643903,0.18618
3428.690579,0.1865
3437.785247,0.18715
3446.928291,0.18759
3456.120099,0.18781
3465.36106,0.18811
3474.651571,0.18838
3483.99203,0.18868
3493.382855,0.18893
3502.824429,0.18893
3512.317177,0.18911
3521.861515,0.18963
3531.457866,0.19019
3541.106657,0.19065
3550.808317,0.19096
3560.563284,0.19107
3570.372009,0.19126
3580.234914,0.19174
3590.15246,0.19219
3600.125104,0.19241
3610.153306,0.19262
3620.237532,0.19292
3630.378252,0.19317
3640.575942,0.19334
3650.831097,0.19358
3661.144177,0.19385
3671.515689,0.19413
3681.946129,0.19442
3692.436003,0.19474
3702.985818,0.1951
3713.596091,0.19541
3724.267342,0.19565
3735.000113,0.19594
3745.79491,0.19637
3756.652285,0.19677
3767.572784,0.1969
3778.556959,0.19705
3789.605369,0.19742
3800.71858,0.1977
3811.897162,0.19796
3823.141709,0.1984
3834.452778,0.19883
3845.830974,0.19917
3857.276898,0.19947
3868.791155,0.19975
3880.37436,0.2001
3892.027134,0.20035
3903.750106,0.20052
3915.543926,0.20092
3927.409209,0.20133
3939.346621,0.20153
3951.356822,0.2015
3963.44048,0.20151
3975.598271,0.20177
3987.830879,0.2022
4000.138997,0.20251
4012.523342,0.20272
4024.984593,0.203
4037.523484,0.20336
4050.140742,0.20368
4062.837106,0.20386
4075.613322,0.20406
4088.470144,0.20426
4101.408338,0.20441
4114.428697,0.20462
4127.531971,0.20483
4140.718972,0.20493
4153.990505,0.20505
4167.347385,0.20523
4180.790439,0.20564
4194.320503,0.20664
4207.938425,0.20808
4221.64508,0.20932
4235.441304,0.20921
4249.327994,0.20853
4263.306045,0.20853
4277.376359,0.20819
4291.539855,0.20749
4305.79746,0.20688
4320.150116,0.20643
4334.598795,0.20644
4349.144426,0.2068
4363.788008,0.20723
4378.530532,0.20753
4393.373006,0.20777
4408.316449,0.20799
4423.361896,0.20793
4438.510393,0.20799
4453.763023,0.2084
4469.120824,0.20854
4484.584908,0.20839
4500.15638,0.20846
4515.836365,0.20867
4531.626,0.20876
4547.52644,0.20885
4563.538854,0.20904
4579.664452,0.20931
4595.904394,0.20945
4612.259923,0.20942
4628.732277,0.20941
4645.322713,0.20935
4662.032504,0.2092
4678.862943,0.2091
4695.815342,0.20896
4712.891054,0.20889
4730.091384,0.20901
4747.417723,0.2091
4764.871462,0.20899
4782.45401,0.20881
4800.1668,0.20867
4818.011283,0.20839
4835.988934,0.2078
4854.101273,0.20682
4872.349771,0.20545
4890.735994,0.20415
4909.261506,0.20326
4927.927896,0.20262
4946.736778,0.20228
4965.68979,0.20264
4984.788594,0.20336
5004.034903,0.20384
5023.430384,0.20414
5042.976803,0.20463
5062.675928,0.20469
5082.529556,0.2038
5102.539511,0.203
5122.707649,0.20254
5143.03585,0.20185
5163.526056,0.20131
5184.180157,0.20098
5205.000154,0.2004
5225.988055,0.20019
5247.145898,0.20057
5268.475756,0.20072
5289.979735,0.20066
5311.659976,0.20088
5333.518684,0.20059
5355.558014,0.19963
5377.780242,0.19908
5400.187657,0.19856
5422.78258,0.19771
5445.567377,0.19732
5468.544451,0.19737
5491.716246,0.19775
5515.085278,0.19793
5538.654014,0.19738
5562.425058,0.19603
5586.401024,0.19463
5610.584574,0.19408
5634.978416,0.19408
5659.585305,0.19478
5684.408043,0.19589
5709.449517,0.19649
5734.712564,0.19679
5760.200171,0.19711
5785.915346,0.19755
5811.861151,0.19755
5838.040701,0.19702
5864.457171,0.19655
5891.11379,0.19613
5918.013883,0.19603
5945.160732,0.19571
5972.557781,0.19573
6000.208507,0.19683
6028.116449,0.19822
6056.285213,0.19965
6084.718472,0.20218
6113.41997,0.20472
6142.393557,0.20637
6171.643046,0.20759
6201.172433,0.20872
6230.985758,0.20989
6261.087133,0.21097
6291.480755,0.21184
6322.1709,0.21216
6353.161929,0.21173
6384.458328,0.21108
6416.064553,0.21009
6447.985267,0.20944
6480.225188,0.20906
6512.789128,0.209
6545.681997,0.20942
6578.908804,0.20936
6612.47466,0.20936
6646.384825,0.20977
6680.644535,0.21019
6715.259268,0.21036
6750.234571,0.21029
6785.576107,0.20982
6821.28966,0.20964
6857.381134,0.20963
6893.856559,0.20975
6930.722144,0.21002
6967.984085,0.2097
7005.648858,0.20909
7043.72303,0.20871
7082.213314,0.20891
7121.126567,0.20884
7160.469802,0.20817
7200.250183,0.20801
7240.47509,0.20824
7281.15191,0.2082
7322.288355,0.20801
7363.892259,0.20781
7405.971636,0.20749
7448.534685,0.20698
7491.589791,0.20681
7535.145539,0.20706
7579.210768,0.20726
7623.794353,0.20744
7668.905555,0.20765
7714.553795,0.20769
7760.74872,0.20758
7807.500211,0.20754
7854.818386,0.20752
7902.713612,0.20733
7951.196573,0.20703
8000.278026,0.20664
8049.969186,0.20615
8100.281485,0.20577
8151.226643,0.20559
8202.816677,0.20554
8255.063908,0.20565
8307.980976,0.20568
8361.580914,0.20561
8415.876885,0.2057
8470.882607,0.20579
8526.612089,0.20574
8583.07971,0.20576
8640.300232,0.20585
8698.288814,0.20587
8757.061026,0.20598
8816.632938,0.20633
8877.020825,0.20675
8938.241648,0.20753
9000.312761,0.20894
9063.252001,0.21037
9127.077709,0.21244
9191.808745,0.21724
9257.464511,0.22648
9324.065051,0.23856
9391.630729,0.24805
9460.182767,0.25273
9529.742923,0.25442
9600.3336,0.25415
9671.977869,0.25231
9744.699495,0.24979
9818.522964,0.24746
9893.473606,0.24613
9969.577237,0.24779
10046.86077,0.25482
10125.35186,0.26378
10205.07902,0.26695
10286.0717,0.26632
10368.36026,0.27325
10451.97605,0.29145
10536.95157,0.30814
10623.32001,0.3137
10711.11603,0.31226
10800.37531,0.30849
10891.13475,0.30383
10983.43249,0.29922
11077.30797,0.29538
11172.80199,0.29247
11269.9569,0.28939
11368.81615,0.28272
11469.42513,0.26994
11571.83069,0.25494
11676.0814,0.24375
11782.22758,0.23851
11890.32139,0.23755
12000.41694,0.23655
12112.5705,0.23358
12226.84001,0.2307
12343.28609,0.22876
12461.97152,0.22731
12582.96151,0.22634
12706.32386,0.22548
12832.12902,0.22493
12960.45029,0.22486
13091.36408,0.22497
13224.94941,0.22515
13361.28907,0.2253
13500.46914,0.22547
13642.57932,0.22597
13787.71312,0.22645
13935.96807,0.22635
14087.44596,0.22571
14242.25324,0.22458
14400.50047,0.22333
14562.30382,0.22224
14727.78452,0.22133
14897.06937,0.2204
15070.29108,0.21986
15247.58859,0.22149
15429.10747,0.2263
15615.00054,0.23384
15805.42735,0.24113
16000.55605,0.24493
16200.56297,0.24457
16405.63335,0.24148
16615.96195,0.23732
16831.75363,0.23388
17053.22403,0.23407
17280.60061,0.24043
17514.12221,0.25312
17754.04165,0.26828
18000.62552,0.28173
18254.15542,0.29268
18514.92902,0.30288
18783.26128,0.31247
19059.48566,0.31584
19343.95592,0.31129
19637.04612,0.30495
19939.15447,0.29402
20250.70371,0.27606
20572.1434,0.2628
20903.95211,0.26304
21246.63979,0.26957
21600.75039,0.27525
21966.86522,0.28809
22345.60422,0.30951
22737.6323,0.33011
23143.66139,0.34968
23564.45516,0.36659
24000.83388,0.36875
24453.67973,0.36028
24923.94272,0.3557
25412.64804,0.34829
