Database of Origin,University of Winnipeg Spectrophotometer Facility
Sample Description,Carbonates and Oxolates -  D&P Spectra Reflectance spectra
Other Information,"Designs and Prototypes 102F spectra/Relative to infragold 1"" disk/Reflectance only"
Date Added,2018-08-06 21:06:09.696752

Data ID,FTIR_CARB_39_7      
Sample ID,CRB126
Mineral Name,Shortite
Locality,Stauffer Mine/ Green River/ Wyoming/ USA
Grain Size,unknown
Viewing Geometry,i=35/ e=0
Resolution,~3 cm-1
Formula,Na2Ca2(CO3)3
Composition,Pure shortite (July 06).

Wavelength
2.001142,0.0200395784
2.002307,0.0201658571
2.003474,0.0202783469
2.004643,0.0203931756
2.005812,0.0205021843
2.006983,0.0206024218
2.008155,0.0207126687
2.009329,0.0208289383
2.010504,0.0209337802
2.01168,0.0210265161
2.012858,0.0211167525
2.014037,0.0212019013
2.015217,0.0212760008
2.016399,0.0213464793
2.017582,0.0214238619
2.018766,0.0215051973
2.019952,0.0215791998
2.021139,0.0216596793
2.022328,0.0217443127
2.023518,0.0218231697
2.024709,0.0219034723
2.025902,0.021980972
2.027096,0.0220526574
2.028291,0.0221151132
2.029488,0.0221813188
2.030686,0.0222575441
2.031886,0.0223244491
2.033087,0.0223869561
2.034289,0.0224588622
2.035493,0.0225375613
2.036698,0.0226296004
2.037905,0.0227353602
2.039113,0.0228479059
2.040322,0.0229677415
2.041533,0.0231009404
2.042746,0.0232452948
2.043959,0.0233779632
2.045174,0.0234945053
2.046391,0.0235975078
2.047609,0.0237049019
2.048828,0.023833266
2.050049,0.0239529378
2.051271,0.0240468913
2.052495,0.0241336162
2.05372,0.0242269371
2.054947,0.0243259483
2.056175,0.0244284664
2.057404,0.0245340873
2.058635,0.0246284832
2.059867,0.0247030836
2.061101,0.0247855193
2.062336,0.0248959561
2.063573,0.0250037967
2.064811,0.0250815389
2.066051,0.0251576281
2.067292,0.0252517015
2.068534,0.0253460983
2.069778,0.0254418437
2.071024,0.0255283792
2.072271,0.0256047321
2.073519,0.0256858249
2.074769,0.0257603476
2.07602,0.0258462477
2.077273,0.0259533248
2.078528,0.0260483367
2.079784,0.026113785
2.081041,0.0261819317
2.0823,0.0262744126
2.08356,0.0263545949
2.084822,0.02641706
2.086085,0.026501731
2.08735,0.026586014
2.088617,0.0266472554
2.089885,0.0267078038
2.091154,0.0267790407
2.092425,0.0268726417
2.093697,0.0269532842
2.094971,0.0270069651
2.096247,0.0270800805
2.097524,0.0271564785
2.098803,0.0272157129
2.100083,0.0272685912
2.101364,0.027307401
2.102648,0.0273386681
2.103932,0.0273747597
2.105219,0.0274092785
2.106506,0.0274305954
2.107796,0.0274527907
2.109087,0.027493513
2.110379,0.0275346875
2.111673,0.02756413
2.112969,0.0276143837
2.114266,0.0276822174
2.115565,0.0277339503
2.116865,0.0277897857
2.118167,0.0278584628
2.119471,0.0279476573
2.120776,0.0280624287
2.122082,0.0281623344
2.123391,0.0282479685
2.1247,0.0283612976
2.126012,0.02849134
2.127325,0.0286282747
2.12864,0.0288007277
2.129956,0.0289060566
2.131274,0.0288941816
2.132593,0.0288888647
2.133914,0.0289340088
2.135237,0.0290086508
2.136561,0.0290905982
2.137887,0.0291745272
2.139214,0.0292504515
2.140544,0.0292975815
2.141874,0.0293618101
2.143207,0.0294544002
2.144541,0.0295533822
2.145876,0.0296611507
2.147214,0.0297417102
2.148553,0.0298011475
2.149893,0.0298891292
2.151235,0.029993446
2.152579,0.0300945189
2.153925,0.0301939463
2.155272,0.0302942665
2.156621,0.0304052182
2.157972,0.030515974
2.159324,0.0306103744
2.160678,0.0307051189
2.162033,0.0308138437
2.16339,0.0309188359
2.164749,0.0309979362
2.16611,0.0310665957
2.167472,0.0311620777
2.168836,0.0312708723
2.170202,0.0313618427
2.171569,0.0314548171
2.172938,0.0315620873
2.174309,0.0316424169
2.175682,0.0317022977
2.177056,0.0317751631
2.178432,0.0318282736
2.179809,0.031863767
2.181189,0.0319141357
2.18257,0.0319534343
2.183952,0.0319884339
2.185337,0.0320300419
2.186723,0.0320623987
2.188111,0.0321017502
2.189501,0.0321201877
2.190892,0.0321147458
2.192285,0.0321331796
2.19368,0.0321756611
2.195077,0.0322064187
2.196476,0.0322023648
2.197876,0.0321970409
2.199278,0.0322033026
2.200682,0.0322077244
2.202087,0.0322338787
2.203494,0.0322677358
2.204903,0.0322798569
2.206314,0.0323130975
2.207727,0.0323654211
2.209141,0.0324009141
2.210557,0.0324617235
2.211975,0.0325440992
2.213395,0.0326291722
2.214817,0.0327282255
2.21624,0.0328133851
2.217665,0.0328944484
2.219092,0.0330022517
2.220521,0.0331273235
2.221952,0.0332677816
2.223384,0.0334127684
2.224818,0.0335226895
2.226254,0.0336077145
2.227692,0.0336965583
2.229132,0.0337981095
2.230574,0.0339257458
2.232017,0.0340358273
2.233462,0.0341110408
2.23491,0.0342104619
2.236359,0.034329582
2.237809,0.0344301762
2.239262,0.03454135
2.240717,0.0346692293
2.242173,0.034757795
2.243631,0.0348306874
2.245092,0.0349244612
2.246554,0.0350130344
2.248017,0.0351178931
2.249483,0.0352303412
2.250951,0.0353170712
2.252421,0.0354118941
2.253892,0.0355321819
2.255365,0.03565437
2.256841,0.0357658481
2.258318,0.0358689099
2.259797,0.0359628303
2.261278,0.0360560905
2.262761,0.036153518
2.264246,0.0362508373
2.265732,0.0363565206
2.267221,0.0364566332
2.268712,0.0365313081
2.270204,0.0365952274
2.271699,0.0366883465
2.273195,0.0367791914
2.274694,0.0368272834
2.276194,0.0368930671
2.277696,0.0370052067
2.279201,0.0371107314
2.280707,0.0371875282
2.282215,0.0373016365
2.283725,0.0374458592
2.285237,0.0375751825
2.286752,0.0377159037
2.288268,0.0378512802
2.289786,0.0379737895
2.291306,0.0381279217
2.292828,0.0382810049
2.294352,0.0383921603
2.295878,0.0385181381
2.297406,0.0386663479
2.298936,0.0388153848
2.300468,0.038956196
2.302002,0.0390729814
2.303539,0.0391884359
2.305077,0.0393009874
2.306617,0.0393968429
2.308159,0.0394692169
2.309703,0.0395460957
2.31125,0.0396604445
2.312798,0.0397871948
2.314348,0.0398911954
2.315901,0.0399832681
2.317455,0.0401256049
2.319012,0.0402887586
2.320571,0.0404112213
2.322131,0.0405390284
2.323694,0.0406873352
2.325259,0.0408142139
2.326826,0.0409236779
2.328395,0.0410555442
2.329966,0.0412064281
2.33154,0.0412976141
2.333115,0.0413379949
2.334692,0.0414001589
2.336272,0.0414356183
2.337854,0.0414067247
2.339437,0.0413762363
2.341023,0.0414051398
2.342611,0.0415016149
2.344201,0.0416589429
2.345794,0.0418929644
2.347388,0.042153232
2.348985,0.042383587
2.350583,0.0426238292
2.352184,0.042878678
2.353787,0.0430681082
2.355393,0.0431846498
2.357,0.0433321075
2.358609,0.0435265253
2.360221,0.0437138643
2.361835,0.0439036615
2.363451,0.0441245829
2.365069,0.0443355161
2.36669,0.044508983
2.368312,0.0446776342
2.369937,0.0448532999
2.371564,0.045029463
2.373194,0.045199567
2.374825,0.0453794023
2.376459,0.0455481144
2.378095,0.0456677192
2.379733,0.0457746523
2.381373,0.0459091656
2.383016,0.0460232629
2.384661,0.046081434
2.386308,0.0461310059
2.387957,0.0461723153
2.389609,0.0461952756
2.391263,0.0462423128
2.392919,0.0462926799
2.394577,0.0462924664
2.396238,0.0462307289
2.397901,0.0461295544
2.399566,0.0459933306
2.401233,0.045825286
2.402903,0.0457425959
2.404575,0.0458422221
2.40625,0.0460757437
2.407926,0.0463537834
2.409606,0.0466147571
2.411287,0.0468553767
2.412971,0.0470626612
2.414657,0.0472156351
2.416345,0.0473294981
2.418036,0.0474356986
2.419729,0.0475553585
2.421424,0.0476406033
2.423122,0.0476636436
2.424822,0.0476758282
2.426524,0.0477070091
2.428229,0.0477463528
2.429936,0.0477614861
2.431646,0.0477250222
2.433358,0.047681115
2.435072,0.0476761951
2.436789,0.0476876509
2.438508,0.0476696736
2.440229,0.0476194748
2.441953,0.0475609888
2.443679,0.0474736119
2.445408,0.0473783706
2.447139,0.0473100134
2.448873,0.0472358187
2.450609,0.04718309
2.452347,0.0471608604
2.454088,0.047152038
2.455831,0.0471709638
2.457577,0.0471839956
2.459325,0.0471801588
2.461076,0.047163027
2.462829,0.047134704
2.464585,0.0470922644
2.466343,0.0470264996
2.468104,0.046947874
2.469867,0.0468325873
2.471632,0.0467405866
2.4734,0.0467429687
2.475171,0.0467430757
2.476944,0.0466869674
2.47872,0.0466081195
2.480498,0.0465033926
2.482278,0.0463889956
2.484062,0.0462756699
2.485847,0.0461287525
2.487636,0.0460071256
2.489427,0.0459482182
2.49122,0.0458461647
2.493016,0.0457092702
2.494814,0.0456194013
2.496615,0.0455232433
2.498419,0.0453954842
2.500225,0.0452197221
2.502034,0.044976626
2.503845,0.0447662714
2.505659,0.0447267805
2.507476,0.0448248935
2.509295,0.0448734893
2.511117,0.0448718624
2.512942,0.0448365438
2.514769,0.0448069218
2.516598,0.0448627583
2.518431,0.0449690301
2.520266,0.0450619342
2.522103,0.0450306953
2.523944,0.0451035233
2.525787,0.0454408226
2.527632,0.045788695
2.52948,0.0457874829
2.531331,0.045667066
2.533185,0.0458401732
2.535041,0.0459767756
2.5369,0.0463528559
2.538762,0.0469010993
2.540627,0.0465135993
2.542494,0.0459820099
2.544364,0.0464782514
2.546236,0.0468715902
2.548112,0.0469348469
2.54999,0.0468282009
2.55187,0.0468022087
2.553754,0.0480166813
2.55564,0.0494013202
2.557529,0.0492318997
2.559421,0.0468746547
2.561316,0.044260247
2.563213,0.0444354666
2.565113,0.047101933
2.567016,0.0482746297
2.568922,0.0474565765
2.570831,0.0471677694
2.572742,0.0468368897
2.574656,0.0470274533
2.576573,0.0481585858
2.578493,0.0493508004
2.580416,0.0489133058
2.582342,0.0467341667
2.58427,0.0462545612
2.586201,0.0472736537
2.588135,0.0482619542
2.590072,0.0499081069
2.592012,0.0471428663
2.593955,0.0404494373
2.5959,0.0419454716
2.597849,0.048894064
2.5998,0.0505093009
2.601755,0.0482258824
2.603712,0.0450346649
2.605672,0.0437004557
2.607635,0.0458199005
2.609601,0.0481466295
2.61157,0.0495731672
2.613542,0.0495453893
2.615517,0.0472575489
2.617495,0.0459121427
2.619475,0.0463515887
2.621459,0.0489454444
2.623446,0.0514611628
2.625435,0.0499854091
2.627428,0.0480704656
2.629424,0.0468292896
2.631423,0.0472584174
2.633424,0.0499255082
2.635429,0.0520030456
2.637437,0.0530967742
2.639447,0.0529753242
2.641461,0.0524336044
2.643478,0.051846334
2.645498,0.0512663725
2.647521,0.0520030956
2.649547,0.052218417
2.651576,0.0504804607
2.653609,0.0496206957
2.655644,0.0504222156
2.657682,0.0504800331
2.659724,0.0494598803
2.661768,0.0486868857
2.663816,0.0450765281
2.665867,0.0411286772
2.667921,0.0406327819
2.669978,0.0401163043
2.672038,0.0426116095
2.674102,0.0448807239
2.676168,0.041875777
2.678238,0.040636069
2.680311,0.0429099877
2.682387,0.0439323738
2.684467,0.0430654633
2.686549,0.0425458384
2.688635,0.0426261285
2.690724,0.0413286038
2.692816,0.0371161823
2.694911,0.0336055333
2.69701,0.0330607398
2.699112,0.0314813221
2.701217,0.0281713078
2.703325,0.0256564471
2.705437,0.0235676274
2.707552,0.0205742353
2.70967,0.0171058323
2.711791,0.0158303521
2.713916,0.0165985476
2.716044,0.0163337753
2.718175,0.0142510056
2.72031,0.0121208844
2.722448,0.0117019593
2.724589,0.0122238332
2.726734,0.0137279213
2.728882,0.0155743135
2.731034,0.0162994316
2.733188,0.0160842196
2.735347,0.0159640846
2.737508,0.0157478621
2.739673,0.0146240759
2.741841,0.0155374172
2.744013,0.018383669
2.746188,0.0199407255
2.748367,0.0203078844
2.750549,0.0203104735
2.752734,0.01925686
2.754923,0.0171716404
2.757115,0.0174615593
2.759311,0.0193550086
2.76151,0.0188748805
2.763713,0.0180731748
2.765919,0.018646383
2.768129,0.0187789597
2.770342,0.0184404
2.772559,0.0189473576
2.774779,0.0197858391
2.777003,0.0197807524
2.77923,0.0192888945
2.781461,0.0188696782
2.783696,0.0185884808
2.785934,0.0176960116
2.788175,0.017067126
2.79042,0.0177892754
2.792669,0.0182642225
2.794922,0.0181238439
2.797178,0.0181771076
2.799437,0.0181000281
2.8017,0.0170826642
2.803967,0.0162262079
2.806238,0.0167536543
2.808512,0.0173642823
2.810789,0.0174592506
2.813071,0.0172812935
2.815356,0.0169930051
2.817645,0.0167332076
2.819937,0.0163434416
2.822233,0.0162985092
2.824533,0.0164420983
2.826837,0.0162040488
2.829144,0.0159895919
2.831455,0.0158432608
2.83377,0.0154860994
2.836089,0.0151911956
2.838411,0.0151283908
2.840737,0.0151704739
2.843067,0.0151281863
2.845401,0.015081325
2.847739,0.0151029525
2.85008,0.0151498234
2.852425,0.0151762597
2.854774,0.01510845
2.857127,0.0151541708
2.859484,0.0152092287
2.861844,0.0151827523
2.864209,0.0152076034
2.866577,0.0151742747
2.868949,0.0151376762
2.871325,0.0150885712
2.873705,0.0150398332
2.876089,0.0150734314
2.878477,0.0150503594
2.880869,0.0149924028
2.883265,0.0149895179
2.885664,0.0149920831
2.888068,0.0149385302
2.890476,0.014969269
2.892887,0.0151874546
2.895303,0.0154169515
2.897723,0.0155513989
2.900146,0.015592357
2.902574,0.0156835315
2.905006,0.0159026224
2.907441,0.016130135
2.909881,0.0163541141
2.912325,0.0165705134
2.914773,0.0167114279
2.917225,0.0168455812
2.919681,0.017078558
2.922142,0.017298978
2.924606,0.0175409778
2.927075,0.0178821355
2.929547,0.018154035
2.932024,0.0183392635
2.934505,0.0184924387
2.93699,0.0186023916
2.939479,0.0187271301
2.941973,0.0189041002
2.944471,0.0190010156
2.946973,0.0189679964
2.949479,0.019152305
2.951989,0.0194742883
2.954504,0.0195439278
2.957023,0.0196857223
2.959546,0.0200184044
2.962073,0.0202266072
2.964605,0.0203287542
2.967141,0.0204413952
2.969681,0.0205813539
2.972226,0.0206427122
2.974775,0.0206121935
2.977328,0.0207448119
2.979886,0.0210281765
2.982448,0.0212514771
2.985015,0.0214583
2.987586,0.0216317021
2.990161,0.0216651313
2.99274,0.0217435708
2.995324,0.0219382629
2.997913,0.0220613367
3.000506,0.0221459633
3.003103,0.0222748572
3.005705,0.0224634318
3.008312,0.02267013
3.010922,0.0228024614
3.013538,0.022857167
3.016158,0.0229466597
3.018782,0.0230980397
3.021411,0.0231998992
3.024044,0.0232671977
3.026683,0.0233181788
3.029325,0.0232107054
3.031972,0.0230478047
3.034624,0.0232000047
3.037281,0.023517898
3.039942,0.0236241173
3.042607,0.0235903432
3.045278,0.0235881069
3.047953,0.0237068091
3.050632,0.0238262495
3.053317,0.0238308209
3.056006,0.0238367458
3.0587,0.0238769216
3.061398,0.0238550685
3.064101,0.023767461
3.066809,0.0238250586
3.069522,0.0240275404
3.072239,0.0241530166
3.074962,0.0242157981
3.077689,0.0242410993
3.080421,0.0242170544
3.083157,0.0242409528
3.085899,0.0242341473
3.088645,0.0242009084
3.091396,0.0242981517
3.094153,0.0244344108
3.096914,0.0244728354
3.099679,0.0244290865
3.10245,0.0245115506
3.105226,0.0247241388
3.108007,0.0248604482
3.110792,0.0249245273
3.113583,0.0249598988
3.116378,0.024986538
3.119179,0.0250246414
3.121985,0.0250757566
3.124795,0.025129275
3.127611,0.0252050415
3.130431,0.0253370195
3.133257,0.0254846266
3.136088,0.0256210583
3.138924,0.0257501057
3.141765,0.0258890544
3.144611,0.0260505676
3.147462,0.0262020018
3.150319,0.026386825
3.15318,0.0266180055
3.156047,0.0268276166
3.158919,0.0270105978
3.161796,0.0271550305
3.164678,0.0272492065
3.167566,0.0273300067
3.170458,0.0274010372
3.173356,0.0274688138
3.17626,0.02749919
3.179168,0.0273937678
3.182082,0.0274367209
3.185001,0.0277936334
3.187926,0.0280917587
3.190856,0.0281372931
3.193791,0.0280758426
3.196731,0.0281622109
3.199677,0.0282918513
3.202629,0.0282492419
3.205585,0.0282067517
3.208548,0.028186544
3.211515,0.0279327709
3.214488,0.0275178127
3.217467,0.0273242538
3.220451,0.0274070669
3.223441,0.0273023017
3.226436,0.0269420137
3.229437,0.0266619124
3.232443,0.0263112888
3.235455,0.0258545969
3.238472,0.025446151
3.241495,0.0249798825
3.244523,0.0244698407
3.247558,0.0240693067
3.250598,0.0237344104
3.253643,0.0234158908
3.256694,0.0231836773
3.259751,0.0231630619
3.262814,0.0232729298
3.265882,0.023219601
3.268956,0.0230286206
3.272036,0.0229366397
3.275122,0.0229227564
3.278213,0.0228015403
3.28131,0.0226622905
3.284413,0.0226529093
3.287522,0.0227135707
3.290637,0.0227454686
3.293757,0.0225814635
3.296884,0.0223100549
3.300016,0.0221262206
3.303155,0.0217623838
3.306299,0.0211822164
3.309449,0.0206588528
3.312605,0.0201524086
3.315767,0.0197160407
3.318936,0.0194958869
3.32211,0.0193316284
3.32529,0.0188539797
3.328476,0.0177781812
3.331669,0.0159916807
3.334867,0.0134677338
3.338072,0.010761318
3.341282,0.87547223
3.344499,0.77660867
3.347722,0.76351249
3.350952,0.80689754
3.354187,0.88132896
3.357429,0.96171196
3.360677,0.0101793596
3.363931,0.0103932636
3.367191,0.0104014236
3.370458,0.0104269121
3.373731,0.010614852
3.37701,0.0109325496
3.380296,0.011329546
3.383588,0.0117744517
3.386886,0.0119993967
3.390191,0.0116422409
3.393502,0.010649839
3.39682,0.93663448
3.400144,0.82299258
3.403475,0.7516755
3.406812,0.7329007
3.410156,0.75729508
3.413506,0.80036766
3.416862,0.83895412
3.420226,0.85773167
3.423596,0.84721559
3.426972,0.81910885
3.430355,0.79832204
3.433745,0.80110155
3.437141,0.82161819
3.440545,0.8433812
3.443954,0.87433207
3.447371,0.92376894
3.450794,0.97843874
3.454224,0.0102870246
3.457661,0.0107011501
3.461105,0.0109636202
3.464556,0.011093126
3.468013,0.0111701139
3.471477,0.0113229592
3.474948,0.0118688242
3.478426,0.0129999127
3.481911,0.01439232
3.485403,0.0154842679
3.488902,0.0160304005
3.492408,0.0164954763
3.495921,0.017184212
3.499441,0.0176452127
3.502968,0.0175620509
3.506502,0.016975801
3.510043,0.0164471577
3.513592,0.0167803506
3.517147,0.0178384879
3.52071,0.0188406065
3.52428,0.0194756594
3.527857,0.0198760829
3.531441,0.0200547427
3.535032,0.0203052911
3.538631,0.0211808563
3.542237,0.0230514252
3.545851,0.0261480156
3.549471,0.0298878206
3.553099,0.0331392327
3.556735,0.0354077097
3.560378,0.0368240951
3.564028,0.0376883213
3.567686,0.0381579672
3.571351,0.0383613461
3.575024,0.0383662267
3.578704,0.0380329613
3.582392,0.0374009677
3.586088,0.0368656658
3.589791,0.0366613774
3.593501,0.0365423125
3.59722,0.0365840803
3.600946,0.0370975179
3.604679,0.03792552
3.608421,0.0390027552
3.61217,0.0402622449
3.615926,0.0415545418
3.619691,0.0429193963
3.623463,0.0441036183
3.627244,0.0449199332
3.631032,0.0454580851
3.634828,0.0457997079
3.638632,0.0460507682
3.642444,0.0462544653
3.646263,0.0463520898
3.650091,0.0463575276
3.653927,0.0464676631
3.657771,0.0466500255
3.661623,0.0467007771
3.665483,0.0466672289
3.669351,0.0466770823
3.673227,0.0466742317
3.677111,0.0465056355
3.681004,0.0462510232
3.684905,0.046129574
3.688814,0.0461248147
3.692731,0.0461253186
3.696656,0.0460814404
3.70059,0.0459653704
3.704532,0.0458026024
3.708483,0.0456093155
3.712442,0.0453766808
3.716409,0.0451386549
3.720385,0.0448779481
3.72437,0.0445644842
3.728362,0.0442359727
3.732364,0.0438639483
3.736374,0.0433801543
3.740392,0.0426960657
3.744419,0.0418249012
3.748455,0.040872112
3.752499,0.0397400665
3.756553,0.0383281752
3.760614,0.0366385443
3.764685,0.0346713636
3.768764,0.0324996667
3.772853,0.0303214943
3.77695,0.0283749079
3.781056,0.0266434406
3.78517,0.0249151709
3.789294,0.0230600338
3.793427,0.0210354904
3.797568,0.0188594648
3.801719,0.0166403182
3.805879,0.0144201941
3.810048,0.0122546061
3.814225,0.0104658864
3.818412,0.93030869
3.822609,0.86372105
3.826814,0.83302384
3.831029,0.84396194
3.835252,0.89232029
3.839486,0.94976213
3.843728,0.99525274
3.84798,0.0103608868
3.852241,0.0108689359
3.856512,0.0114436326
3.860792,0.0118352372
3.865081,0.0118414097
3.86938,0.0114608204
3.873689,0.0108316608
3.878007,0.0100845015
3.882334,0.91787002
3.886672,0.82630679
3.891019,0.76637105
3.895375,0.72628831
3.899742,0.67362415
3.904118,0.60720328
3.908504,0.54723001
3.9129,0.4980677
3.917305,0.44167855
3.921721,0.38717351
3.926146,0.36485192
3.930581,0.38091416
3.935027,0.4204258
3.939482,0.45527589
3.943948,0.48742823
3.948423,0.54084871
3.952909,0.59198642
3.957405,0.59625162
3.961911,0.54260723
3.966427,0.47260003
3.970954,0.42986872
3.975491,0.4002133
3.980038,0.35479813
3.984595,0.29349343
3.989163,0.27496625
3.993742,0.39904371
3.99833,0.76073818
4.00293,0.0114964729
4.00754,0.0142475034
4.01216,0.0161931597
4.016791,0.0177976403
4.021433,0.0189318719
4.026086,0.0192084073
4.030749,0.0185483738
4.035423,0.0173579176
4.040108,0.0161485033
4.044804,0.0150523795
4.04951,0.0139143681
4.054228,0.0126912215
4.058956,0.0115131212
4.063695,0.0102641078
4.068446,0.88928743
4.073207,0.84207746
4.07798,0.0103960759
4.082764,0.0148269123
4.087559,0.0199132792
4.092365,0.0243361561
4.097183,0.0279428285
4.102012,0.0307658484
4.106852,0.032687419
4.111703,0.0338713028
4.116566,0.0347904995
4.121441,0.0356161932
4.126327,0.0363943048
4.131224,0.0372822684
4.136133,0.0382083797
4.141054,0.0389752283
4.145987,0.0395502927
4.150931,0.0399910674
4.155887,0.0403282907
4.160854,0.0405910304
4.165834,0.0407935359
4.170826,0.0410101276
4.175829,0.041283737
4.180844,0.0415083261
4.185872,0.0415745444
4.190911,0.041240971
4.195963,0.0399541521
4.201026,0.0372656979
4.206102,0.03324183
4.21119,0.0285015598
4.216291,0.0239031036
4.221404,0.0200040643
4.226529,0.0170315231
4.231666,0.0151422385
4.236816,0.0144860853
4.241979,0.0152568116
4.247154,0.0177675685
4.252341,0.0228981127
4.257542,0.0276340601
4.262754,0.0265413193
4.26798,0.0226124949
4.273219,0.0209731814
4.27847,0.0209977414
4.283734,0.0214300337
4.289011,0.0219563969
4.294301,0.0229183076
4.299604,0.0243627056
4.30492,0.0258069585
4.31025,0.0276279196
4.315592,0.0300017354
4.320948,0.0322213332
4.326317,0.0340977887
4.331699,0.0359578649
4.337095,0.0377434154
4.342504,0.039215033
4.347926,0.0402766515
4.353362,0.0410424727
4.358811,0.0416441573
4.364275,0.0421027491
4.369751,0.042477773
4.375242,0.042794735
4.380746,0.042893341
4.386264,0.0426775929
4.391796,0.0422534888
4.397342,0.041784815
4.402902,0.0413643663
4.408476,0.0410176797
4.414064,0.0408302772
4.419666,0.040833304
4.425282,0.0409385942
4.430913,0.0410779845
4.436558,0.0412259012
4.442217,0.0413247813
4.447891,0.0413389628
4.453579,0.0412514354
4.459281,0.0410974265
4.464998,0.0409877121
4.47073,0.041021025
4.476477,0.0411406648
4.482238,0.0412230375
4.488014,0.0414295151
4.493805,0.0418598917
4.499611,0.0424407893
4.505431,0.0430574813
4.511267,0.0434853266
4.517118,0.043743484
4.522984,0.0439499247
4.528865,0.0440267059
4.534762,0.0439580242
4.540674,0.043885272
4.546601,0.0439502146
4.552543,0.0441567303
4.558502,0.0443721137
4.564475,0.0444803627
4.570465,0.0443799072
4.57647,0.0440458795
4.582491,0.0436059346
4.588527,0.043129163
4.59458,0.0428601744
4.600648,0.0428886542
4.606732,0.0430095686
4.612833,0.0430570203
4.618949,0.0426642109
4.625082,0.042665816
4.631231,0.0438698562
4.637397,0.0450357528
4.643578,0.0454525969
4.649777,0.0454512779
4.655991,0.0450657141
4.662223,0.0438532161
4.668471,0.0402304741
4.674735,0.0356132545
4.681017,0.0357213443
4.687315,0.0398220227
4.69363,0.0423842631
4.699962,0.0430384355
4.706312,0.0434107505
4.712678,0.0437395367
4.719062,0.0440504315
4.725463,0.0447888349
4.731881,0.0463028728
4.738316,0.0480791922
4.744769,0.0495158917
4.75124,0.0504738694
4.757728,0.05097122
4.764234,0.0510787497
4.770758,0.050910901
4.777299,0.0506245999
4.783859,0.0503704022
4.790436,0.0505200207
4.797032,0.0511986331
4.803645,0.052214986
4.810277,0.0534781896
4.816927,0.0547697925
4.823596,0.0558843643
4.830283,0.0567856775
4.836988,0.0574447011
4.843712,0.0579399931
4.850455,0.0583308742
4.857216,0.0586584464
4.863996,0.0590559691
4.870795,0.0595581192
4.877613,0.0599946593
4.884451,0.0603256844
4.891307,0.0606439899
4.898182,0.0608504884
4.905077,0.0611283208
4.911991,0.0614951282
4.918925,0.0618975201
4.925878,0.0623260302
4.932851,0.0627055858
4.939844,0.0633005189
4.946856,0.0639564388
4.953888,0.0640241405
4.960941,0.0642072898
4.968013,0.0648966842
4.975105,0.0649438307
4.982218,0.0648762453
4.989351,0.0654367401
4.996504,0.0658773155
5.003678,0.0661392595
5.010872,0.0663600433
5.018087,0.0664168341
5.025323,0.0667554112
5.03258,0.0673729201
5.039857,0.0678653874
5.047156,0.0682277543
5.054475,0.0685538206
5.061816,0.0688800173
5.069179,0.0691665341
5.076562,0.0692730878
5.083967,0.0694104344
5.091394,0.0697557219
5.098842,0.0699410979
5.106312,0.0699376588
5.113804,0.070010343
5.121318,0.0702381626
5.128854,0.070561401
5.136412,0.0706090561
5.143992,0.0703460496
5.151595,0.0705877493
5.15922,0.0713119356
5.166868,0.0719053218
5.174538,0.0724098276
5.182231,0.0728237088
5.189947,0.0728836736
5.197686,0.072614867
5.205448,0.072223603
5.213233,0.0721523916
5.221041,0.0728062003
5.228873,0.0731830772
5.236728,0.0730054918
5.244607,0.073058165
5.25251,0.0732355595
5.260436,0.0732660777
5.268386,0.0729623614
5.27636,0.072612361
5.284358,0.0722510178
5.292381,0.0719452744
5.300428,0.0721567654
5.308499,0.0722312461
5.316595,0.0719109408
5.324715,0.0715638723
5.33286,0.0710964204
5.341031,0.0696586347
5.349226,0.0678472873
5.357446,0.0675098258
5.365692,0.0672971317
5.373962,0.0658081237
5.382259,0.0637011984
5.390581,0.061048102
5.398928,0.0576244598
5.407302,0.0530996389
5.415701,0.0471144528
5.424127,0.0413580312
5.432579,0.0365415854
5.441057,0.0312981349
5.449561,0.0261117032
5.458092,0.0216752176
5.46665,0.0183644318
5.475234,0.0165368632
5.483846,0.0160752289
5.492484,0.0175836015
5.50115,0.0235715661
5.509843,0.01673269
5.518564,0.0143627666
5.527312,0.0129490823
5.536087,0.0119817332
5.544891,0.0118252848
5.553723,0.0116766973
5.562582,0.0112646253
5.57147,0.0115808126
5.580387,0.011621807
5.589332,0.010819939
5.598305,0.0105162587
5.607307,0.0105412334
5.616339,0.0103828021
5.625399,0.0104361838
5.634489,0.0112013128
5.643607,0.0116653122
5.652756,0.0109561992
5.661934,0.0104171734
5.671142,0.0105193775
5.680379,0.0106606344
5.689647,0.0106031701
5.698945,0.0108470218
5.708274,0.0114020139
5.717633,0.0113253153
5.727022,0.0108969211
5.736443,0.0109807206
5.745894,0.0111637839
5.755377,0.0117643019
5.76489,0.0125367799
5.774436,0.0116392678
5.784012,0.0106683998
5.793621,0.0104836597
5.803262,0.010692099
5.812934,0.011739772
5.822639,0.0125196402
5.832376,0.0115459712
5.842146,0.0108141053
5.851948,0.0109910605
5.861783,0.011501179
5.871652,0.012608049
5.881553,0.0136945805
5.891488,0.0131671053
5.901457,0.0118243193
5.911459,0.0110472028
5.921495,0.0116169321
5.931565,0.0130232487
5.94167,0.0125014135
5.951809,0.0114563383
5.961982,0.0116934799
5.97219,0.0119870469
5.982433,0.0120403618
5.992711,0.011811068
6.003025,0.0115410052
6.013374,0.0115957535
6.023759,0.0114275565
6.034179,0.0125930704
6.044636,0.0149019637
6.055129,0.0140816531
6.065658,0.0131544835
6.076224,0.0127951199
6.086826,0.0119817653
6.097466,0.0124157598
6.108143,0.0135368492
6.118857,0.012991818
6.129609,0.0121779183
6.140398,0.0123094664
6.151226,0.0125504382
6.162091,0.0123906436
6.172996,0.0125768555
6.183938,0.0126500657
6.19492,0.0117918458
6.20594,0.0112878884
6.217,0.0111580555
6.228099,0.0109671837
6.239237,0.0108186558
6.250416,0.0106993265
6.261635,0.0106422639
6.272893,0.0105980915
6.284193,0.0105417273
6.295533,0.0105078401
6.306914,0.0104998452
6.318336,0.0105520224
6.329799,0.0110596451
6.341304,0.0114608492
6.352851,0.0111503872
6.36444,0.0110776938
6.376071,0.0109417576
6.387745,0.0108346635
6.399461,0.0119439621
6.411221,0.013011846
6.423023,0.0118978909
6.434869,0.0108951635
6.446759,0.0105962243
6.458693,0.0106390326
6.470671,0.0112860382
6.482693,0.0121937065
6.49476,0.0117152894
6.506872,0.0108059603
6.519029,0.0105202055
6.531231,0.0103808716
6.54348,0.0105232043
6.555774,0.0109959162
6.568114,0.0113220984
6.580501,0.0111031926
6.592934,0.0107316768
6.605415,0.0106072842
6.617943,0.0111344265
6.630518,0.0117371721
6.643141,0.010990753
6.655812,0.0104282865
6.668532,0.0106411418
6.6813,0.0105916317
6.694117,0.0104597935
6.706983,0.0105775945
6.719899,0.0104037981
6.732864,0.0101424301
6.745879,0.0101145132
6.758945,0.0102707958
6.772062,0.0106623739
6.785229,0.0107665273
6.798448,0.0103460903
6.811718,0.0102209402
6.825039,0.0102240224
6.838413,0.0103506177
6.85184,0.010905989
6.865319,0.0107088548
6.878851,0.0101014423
6.892437,0.0100043679
6.906076,0.99681916
6.919769,0.98164977
6.933517,0.98711752
6.947319,0.0101594796
6.961176,0.0101044814
6.975089,0.98263418
6.989057,0.97465791
7.003081,0.97035986
7.017161,0.97904118
7.031298,0.0101082798
7.045492,0.0101664834
7.059743,0.98954238
7.074052,0.97670348
7.088419,0.97683146
7.102845,0.97855578
7.117329,0.97802447
7.131872,0.98015427
7.146475,0.98820386
7.161137,0.98386452
7.17586,0.96794918
7.190643,0.96639813
7.205487,0.96797354
7.220393,0.95791171
7.23536,0.95272155
7.25039,0.95590542
7.265481,0.95964573
7.280636,0.95563874
7.295854,0.94934097
7.311135,0.95056195
7.326481,0.95585894
7.341891,0.95273398
7.357366,0.94586762
7.372906,0.94450634
7.388512,0.94442425
7.404184,0.94447011
7.419922,0.94489354
7.435728,0.94867854
7.451601,0.95527232
7.467541,0.95465023
7.48355,0.94872749
7.499628,0.94621565
7.515774,0.94598877
7.53199,0.9457172
7.548277,0.94638504
7.564633,0.94825119
7.581061,0.94891982
7.59756,0.94784136
7.614131,0.9462154
7.630774,0.94498263
7.647491,0.94499765
7.66428,0.94575074
7.681143,0.9467118
7.69808,0.94744772
7.715093,0.9477403
7.73218,0.94859289
7.749343,0.95050366
7.766583,0.95235
7.783899,0.95387685
7.801292,0.9555827
7.818764,0.9578099
7.836313,0.96122453
7.853942,0.96574483
7.871649,0.97089069
7.889437,0.97671123
7.907305,0.98220617
7.925254,0.98508074
7.943285,0.98519708
7.961398,0.98461628
7.979594,0.98428636
7.997872,0.98476065
8.016235,0.98655444
8.034682,0.98914138
8.053214,0.9920124
8.071832,0.99518606
8.090535,0.99848225
8.109326,0.010014085
8.128204,0.0100446081
8.147169,0.0100778216
8.166224,0.0101105842
8.185368,0.010144669
8.204601,0.0101750595
8.223925,0.0102004521
8.24334,0.0102243865
8.262847,0.0102488421
8.282446,0.0102744363
8.302139,0.0102999327
8.321925,0.010325689
8.341805,0.0103512479
8.361781,0.0103757687
8.381852,0.0104020649
8.40202,0.0104325909
8.422285,0.0104664719
8.442648,0.0105015423
8.463109,0.0105322684
8.48367,0.0105582825
8.504331,0.0105856524
8.525092,0.0106147615
8.545955,0.0106453913
8.566921,0.0106774948
8.587989,0.0107076268
8.609161,0.0107354563
8.630437,0.010764712
8.651819,0.0107984528
8.673307,0.0108338919
8.694902,0.0108659902
8.716604,0.0108969098
8.738415,0.0109297959
8.760335,0.0109659519
8.782365,0.0110064182
8.804507,0.0110502431
8.82676,0.0110960965
8.849125,0.01114461
8.871604,0.0111962728
8.894198,0.0112482838
8.916907,0.0113002156
8.939732,0.0113522292
8.962673,0.0114016528
8.985733,0.011445758
9.008912,0.0114827205
9.03221,0.0115147186
9.055629,0.0115440837
9.07917,0.0115665207
9.102833,0.0115708507
9.12662,0.0115356708
9.150531,0.0114924864
9.174568,0.0115078007
9.198731,0.0115537634
9.223022,0.011571894
9.247441,0.0115650374
9.27199,0.0115358278
9.296669,0.0114761145
9.32148,0.0114327328
9.346423,0.0114404698
9.3715,0.0114540452
9.396712,0.0114477632
9.42206,0.011435066
9.447545,0.0114161947
9.473167,0.011387288
9.498929,0.0113518696
9.524832,0.0113166836
9.550876,0.0112875475
9.577062,0.0112622831
9.603393,0.0112354982
9.629868,0.0112083101
9.65649,0.0111829172
9.683259,0.0111582599
9.710176,0.0111329346
9.737244,0.0111067965
9.764463,0.0110806541
9.791834,0.0110554606
9.819359,0.0110265268
9.847039,0.0109915832
9.874875,0.010955209
9.902869,0.0109196513
9.931022,0.0108896513
9.959336,0.010869316
9.987811,0.0108544452
10.016449,0.0108416765
10.045252,0.0108315777
10.074221,0.0108255947
10.103357,0.0108246708
10.132662,0.0108275895
10.162137,0.0108336711
10.191784,0.0108407064
10.221604,0.0108460395
10.2516,0.0108514222
10.281771,0.0108602857
10.312121,0.010873476
10.34265,0.0108881898
10.37336,0.0109038375
10.404253,0.0109224371
10.435331,0.0109433796
10.466594,0.0109667461
10.498045,0.0109935368
10.529686,0.0110236041
10.561517,0.0110566044
10.593542,0.011091946
10.625761,0.0111299549
10.658176,0.011171296
10.69079,0.0112158325
10.723604,0.0112631368
10.756619,0.0113114185
10.789839,0.0113606536
10.823264,0.0114132962
10.856896,0.0114680236
10.890738,0.0115248313
10.924791,0.0115844849
10.959058,0.0116447553
10.993541,0.0117075166
11.02824,0.0117731618
11.06316,0.0118381726
11.098301,0.0119026403
11.133665,0.0119684346
11.169256,0.0120320897
11.205075,0.0120919924
11.241124,0.0121510776
11.277405,0.0122080537
11.313921,0.0122632589
11.350675,0.0123183551
11.387667,0.0123753811
11.424901,0.0124385222
11.46238,0.0125009744
11.500105,0.0125515927
11.538079,0.0125943201
11.576304,0.0126397132
11.614783,0.012689309
11.653518,0.0127416825
11.692513,0.0128007274
11.731769,0.0128691827
11.77129,0.0129449957
11.811077,0.013015816
11.851134,0.0130781515
11.891464,0.0131413635
11.932068,0.0132040674
11.972951,0.0132731281
12.014114,0.0133537803
12.055562,0.0134450092
12.097296,0.0135514767
12.13932,0.0136492214
12.181636,0.0137241428
12.224249,0.0138008678
12.26716,0.0138888087
12.310373,0.0139856811
12.353892,0.0140862829
12.397719,0.0141695934
12.441859,0.0142229855
12.486313,0.014251033
12.531086,0.014265732
12.57618,0.0142731862
12.621601,0.0142783776
12.66735,0.0142926911
12.713432,0.0143094698
12.75985,0.0143245292
12.806608,0.0143516798
12.85371,0.0143976463
12.901159,0.014462244
12.94896,0.0145384752
12.997116,0.0146216658
13.045631,0.014715027
13.09451,0.0148196923
13.143756,0.0149343657
13.193373,0.0150588177
13.243366,0.0151905781
13.29374,0.0153206216
13.344497,0.0154545274
13.395644,0.0156056873
13.447183,0.015768208
13.499121,0.0159456816
13.551461,0.0161403894
13.604208,0.0163482691
13.657367,0.0165853338
13.710943,0.0168355547
13.764941,0.0171027663
13.819365,0.017445602
13.874221,0.0178259895
13.929515,0.0182068288
13.98525,0.0186654833
14.041433,0.0192323112
14.098068,0.0199211508
14.155163,0.0207739594
14.212721,0.0218204945
14.270749,0.0231256239
14.329252,0.0247726222
14.388237,0.0269114903
14.447709,0.0298501007
14.507674,0.0340399146
14.568139,0.0402446721
14.629109,0.050276046
14.690592,0.0677206406
14.752594,0.0889537146
14.815121,0.084093907
14.878179,0.0518599925
14.941777,0.0304567041
15.00592,0.0239402685
15.070616,0.0195478993
15.135871,0.0147611619
15.201695,0.0114810039
15.268092,0.91777003
15.335072,0.75434155
15.402642,0.64187937
15.47081,0.5603733
15.539583,0.49761227
15.60897,0.44987746
15.678979,0.41438712
15.749619,0.38786955
15.820897,0.36772293
15.892824,0.35161678
15.965407,0.33761921
