Database of Origin,University of Winnipeg Spectrophotometer Facility
Sample Description,16. Meteorites. 16.1 Iron meteorites and components 16.1.2. UND samples.  (a) PSF D&P spectra
Other Information,only good to 4.3 um illum. spot larger than viewed spot (8mm)
Date Added,2018-07-23 23:32:11.537722

Data ID,FTIR_MET_4_2        
Sample ID,Tucson
Mineral Name,Tucson
Grain Size,Slab
Viewing Geometry,i=30/ e=0
Resolution,6 cm-1
Composition,Cloudy Spot
Material Class,Iron Meteorite

Wavelength
2000.56,0.35788344
2001.142,0.35772033
2001.725,0.35746498
2002.307,0.35715731
2002.891,0.35686091
2003.474,0.35660236
2004.058,0.35636136
2004.643,0.35611565
2005.227,0.35588825
2005.812,0.35572417
2006.397,0.35561943
2006.983,0.35549175
2007.569,0.35524654
2008.155,0.35487706
2008.742,0.35448416
2009.329,0.35418405
2009.916,0.35401284
2010.504,0.35391526
2011.092,0.35382436
2011.68,0.35372242
2012.269,0.35362971
2012.858,0.35355132
2013.447,0.35346451
2014.037,0.35334925
2014.627,0.35320866
2015.217,0.35304562
2015.808,0.35284714
2016.399,0.35259909
2016.99,0.35231491
2017.582,0.35203839
2018.174,0.35181242
2018.766,0.351651
2019.359,0.3515466
2019.952,0.35149611
2020.546,0.35149836
2021.139,0.35152581
2021.733,0.35151466
2022.328,0.35140566
2022.923,0.3512037
2023.518,0.35097794
2024.113,0.35079404
2024.709,0.35064727
2025.305,0.35047458
2025.902,0.35023123
2026.499,0.34994048
2027.096,0.34966877
2027.693,0.34946391
2028.291,0.34933416
2028.89,0.34927161
2029.488,0.34927202
2030.087,0.34932
2030.686,0.34937322
2031.286,0.34937811
2031.886,0.34930356
2032.486,0.34916037
2033.087,0.34899016
2033.688,0.34884124
2034.289,0.34874036
2034.891,0.34866969
2035.493,0.34856581
2036.096,0.34836713
2036.698,0.34807741
2037.302,0.34777632
2037.905,0.34755222
2038.509,0.34742988
2039.113,0.34736909
2039.718,0.34732274
2040.322,0.34726971
2040.928,0.34719373
2041.533,0.34706079
2042.139,0.34684606
2042.746,0.34658249
2043.352,0.34635629
2043.959,0.34624628
2044.567,0.34626913
2045.174,0.34637823
2045.782,0.34650304
2046.391,0.34657817
2047.0,0.34655255
2047.609,0.34640278
2048.218,0.34615264
2048.828,0.34587134
2049.438,0.34563618
2050.049,0.34548864
2050.66,0.34541747
2051.271,0.34538079
2051.883,0.34533476
2052.495,0.34525069
2053.107,0.3451287
2053.72,0.34500343
2054.333,0.34492591
2054.947,0.34492095
2055.56,0.3449572
2056.175,0.3449704
2056.789,0.34492127
2057.404,0.34481959
2058.019,0.34469213
2058.635,0.3445424
2059.251,0.34436456
2059.867,0.34418371
2060.484,0.34405313
2061.101,0.34399606
2061.718,0.34397348
2062.336,0.3439299
2062.954,0.34386166
2063.573,0.34381147
2064.192,0.34379781
2064.811,0.34377241
2065.431,0.34366809
2066.051,0.34347653
2066.671,0.34326013
2067.292,0.34308926
2067.913,0.34298614
2068.534,0.34292901
2069.156,0.34289658
2069.778,0.34288627
2070.401,0.34289433
2071.024,0.34288552
2071.647,0.3428011
2072.271,0.34260151
2072.895,0.34231691
2073.519,0.34204704
2074.144,0.34189663
2074.769,0.34189468
2075.395,0.34198154
2076.02,0.34206201
2076.647,0.34207144
2077.273,0.34199484
2077.9,0.34184926
2078.528,0.34167651
2079.155,0.34153647
2079.784,0.34147726
2080.412,0.34149547
2081.041,0.34153549
2081.67,0.3415466
2082.3,0.34152483
2082.93,0.34148745
2083.56,0.34141586
2084.191,0.34126041
2084.822,0.34100921
2085.454,0.34073545
2086.085,0.34055544
2086.718,0.34053541
2087.35,0.34063555
2087.983,0.34073711
2088.617,0.34072383
2089.251,0.34055525
2089.885,0.3402931
2090.519,0.34005953
2091.154,0.33994397
2091.789,0.33992848
2092.425,0.33990982
2093.061,0.33981168
2093.697,0.33967416
2094.334,0.33961492
2094.971,0.33969906
2095.609,0.33985439
2096.247,0.33992709
2096.885,0.3398209
2097.524,0.33957318
2098.163,0.33930106
2098.803,0.33909261
2099.443,0.3389595
2100.083,0.33887599
2100.723,0.33883133
2101.364,0.33883334
2102.006,0.33887841
2102.648,0.33893784
2103.29,0.33897166
2103.932,0.33894935
2104.575,0.33885647
2105.219,0.33869634
2105.862,0.33849846
2106.506,0.33831837
2107.151,0.33821236
2107.796,0.33820003
2108.441,0.33825183
2109.087,0.33831027
2109.733,0.33831745
2110.379,0.33822864
2111.026,0.33801758
2111.673,0.33769059
2112.321,0.33730774
2112.969,0.33698334
2113.617,0.336835
2114.266,0.33690818
2114.915,0.3371315
2115.565,0.3373524
2116.215,0.33743663
2116.865,0.33735501
2117.516,0.33718435
2118.167,0.33702455
2118.819,0.33692292
2119.471,0.33686836
2120.123,0.33683221
2120.776,0.33679857
2121.429,0.33676285
2122.082,0.3367263
2122.736,0.3367034
2123.391,0.33671495
2124.045,0.33675787
2124.7,0.33678399
2125.356,0.33673417
2126.012,0.33660584
2126.668,0.33646805
2127.325,0.33640354
2127.982,0.33642952
2128.64,0.33647908
2129.297,0.33646102
2129.956,0.33633555
2130.614,0.33614411
2131.274,0.33597017
2131.933,0.33586804
2132.593,0.33582034
2133.253,0.33575736
2133.914,0.33562761
2134.575,0.3354609
2135.237,0.33535253
2135.899,0.3353758
2136.561,0.33550041
2137.224,0.33560289
2137.887,0.33557162
2138.55,0.33540745
2139.214,0.33522144
2139.879,0.33512616
2140.544,0.33513383
2141.209,0.33515604
2141.874,0.33508918
2142.54,0.33490176
2143.207,0.33464861
2143.873,0.33442693
2144.541,0.33431041
2145.208,0.33430884
2145.876,0.3343718
2146.545,0.33443397
2147.214,0.33446308
2147.883,0.33446512
2148.553,0.33444412
2149.223,0.33437341
2149.893,0.33422547
2150.564,0.33402147
2151.235,0.33383238
2151.907,0.33372121
2152.579,0.33370463
2153.252,0.33377069
2153.925,0.33391422
2154.598,0.33412018
2155.272,0.33432486
2155.946,0.33442898
2156.621,0.33437738
2157.296,0.33422236
2157.972,0.33407745
2158.647,0.33401245
2159.324,0.33400178
2160.001,0.33397714
2160.678,0.33390792
2161.355,0.33381595
2162.033,0.3337304
2162.712,0.33365164
2163.39,0.3335695
2164.07,0.33349886
2164.749,0.33347324
2165.429,0.33349764
2166.11,0.33352424
2166.791,0.33348611
2167.472,0.33335925
2168.154,0.33318011
2168.836,0.33300424
2169.519,0.33286429
2170.202,0.33276797
2170.885,0.33272497
2171.569,0.33274477
2172.254,0.33280878
2172.938,0.33286194
2173.624,0.33285066
2174.309,0.33276681
2174.995,0.33265635
2175.682,0.33258798
2176.368,0.33261126
2177.056,0.33272388
2177.743,0.33286422
2178.432,0.33294369
2179.12,0.33291274
2179.809,0.33280279
2180.499,0.33269178
2181.189,0.33262299
2181.879,0.33256499
2182.57,0.33246363
2183.261,0.33232378
2183.952,0.33222097
2184.644,0.33222996
2185.337,0.33234568
2186.03,0.33248467
2186.723,0.3325618
2187.417,0.33255862
2188.111,0.33251576
2188.806,0.33247186
2189.501,0.33242202
2190.196,0.33234172
2190.892,0.33224075
2191.589,0.33217525
2192.285,0.33219346
2192.983,0.3322755
2193.68,0.33234623
2194.379,0.33234743
2195.077,0.33229172
2195.776,0.33223365
2196.476,0.3321969
2197.175,0.33214642
2197.876,0.33203635
2198.577,0.33187628
2199.278,0.33173854
2199.979,0.33170176
2200.682,0.33178755
2201.384,0.3319491
2202.087,0.33211262
2202.79,0.33222492
2203.494,0.33226683
2204.199,0.33223917
2204.903,0.33215184
2205.609,0.33203535
2206.314,0.33194625
2207.02,0.33193845
2207.727,0.33201433
2208.434,0.33210605
2209.141,0.33212436
2209.849,0.33203488
2210.557,0.33189293
2211.266,0.33179229
2211.975,0.33178084
2212.685,0.33182103
2213.395,0.33183005
2214.106,0.33176
2214.817,0.3316351
2215.528,0.33151483
2216.24,0.33141988
2216.952,0.33130829
2217.665,0.33113125
2218.379,0.33091187
2219.092,0.33074809
2219.806,0.33072592
2220.521,0.33083467
2221.236,0.33098008
2221.952,0.33107485
2222.668,0.33109919
2223.384,0.33107735
2224.101,0.33101761
2224.818,0.33090232
2225.536,0.3307318
2226.254,0.33054976
2226.973,0.33041018
2227.692,0.33033135
2228.412,0.3302939
2229.132,0.33027344
2229.853,0.33026225
2230.574,0.33025805
2231.295,0.33024889
2232.017,0.33022122
2232.74,0.3301753
2233.462,0.33012213
2234.186,0.33005836
2234.91,0.32995314
2235.634,0.32977594
2236.359,0.32954442
2237.084,0.32933257
2237.809,0.32922097
2238.536,0.32922723
2239.262,0.32929557
2239.989,0.32935533
2240.717,0.32938514
2241.445,0.32941033
2242.173,0.32944657
2242.902,0.3294622
2243.631,0.32941006
2244.361,0.32928276
2245.092,0.32912347
2245.822,0.32898241
2246.554,0.32887199
2247.285,0.32876833
2248.017,0.32864849
2248.75,0.32852377
2249.483,0.32843369
2250.217,0.32840565
2250.951,0.32841822
2251.686,0.32840707
2252.421,0.32831716
2253.156,0.32816097
2253.892,0.32801487
2254.628,0.32794691
2255.365,0.32794126
2256.103,0.32790662
2256.841,0.32776839
2257.579,0.32755417
2258.318,0.32737591
2259.057,0.32732494
2259.797,0.32738956
2260.537,0.32747708
2261.278,0.32750665
2262.019,0.32747527
2262.761,0.32743006
2263.503,0.32739384
2264.246,0.3273363
2264.989,0.32722023
2265.732,0.32705868
2266.477,0.32691599
2267.221,0.32685385
2267.966,0.3268817
2268.712,0.32696114
2269.458,0.32704353
2270.204,0.32710064
2270.951,0.32712209
2271.699,0.32710447
2272.447,0.32705248
2273.195,0.32698508
2273.944,0.32692462
2274.694,0.32687659
2275.444,0.3268258
2276.194,0.32675909
2276.945,0.32668188
2277.696,0.32660785
2278.448,0.3265339
2279.201,0.32644118
2279.954,0.32632548
2280.707,0.32621689
2281.461,0.32615173
2282.215,0.32613576
2282.97,0.32613555
2283.725,0.32611187
2284.481,0.32605002
2285.237,0.32595468
2285.994,0.32582843
2286.752,0.32567622
2287.509,0.32552953
2288.268,0.32544703
2289.026,0.32546677
2289.786,0.32555672
2290.545,0.32562812
2291.306,0.32561481
2292.067,0.3255375
2292.828,0.32548416
2293.59,0.32551856
2294.352,0.32561629
2295.115,0.32569571
2295.878,0.325707
2296.642,0.32567163
2297.406,0.32563154
2298.171,0.32557838
2298.936,0.32545913
2299.702,0.32525307
2300.468,0.32502351
2301.235,0.32487272
2302.002,0.32484779
2302.77,0.32489798
2303.539,0.32491822
2304.307,0.32482799
2305.077,0.32462411
2305.847,0.3243814
2306.617,0.32420505
2307.388,0.32416073
2308.159,0.32422659
2308.931,0.32431751
2309.703,0.32436414
2310.476,0.32436448
2311.25,0.32435737
2312.024,0.32435226
2312.798,0.32431167
2313.573,0.32420799
2314.348,0.32407971
2315.124,0.32400978
2315.901,0.32404893
2316.678,0.324172
2317.455,0.32430458
2318.234,0.32438809
2319.012,0.32441845
2319.791,0.324429
2320.571,0.3244484
2321.351,0.32446953
2322.131,0.32446034
2322.913,0.32439954
2323.694,0.32430316
2324.476,0.32421308
2325.259,0.32416386
2326.042,0.3241602
2326.826,0.32418798
2327.61,0.32423187
2328.395,0.32427562
2329.18,0.3242963
2329.966,0.32427256
2330.753,0.32420251
2331.54,0.32410404
2332.327,0.32399046
2333.115,0.32385835
2333.903,0.32370396
2334.692,0.32354629
2335.482,0.32342465
2336.272,0.32336873
2337.062,0.32337514
2337.854,0.3234135
2338.645,0.32345043
2339.437,0.32346947
2340.23,0.3234761
2341.023,0.3234893
2341.817,0.32352102
2342.611,0.32356315
2343.406,0.32359173
2344.201,0.32358943
2344.997,0.32356285
2345.794,0.32353203
2346.591,0.32350655
2347.388,0.32347535
2348.186,0.32342202
2348.985,0.3233443
2349.784,0.32325551
2350.583,0.32316987
2351.384,0.32309205
2352.184,0.32302629
2352.986,0.32299021
2353.787,0.32301102
2354.59,0.32309701
2355.393,0.32321563
2356.196,0.32330457
2357.0,0.32331951
2357.804,0.32326848
2358.609,0.32320114
2359.415,0.32316063
2360.221,0.32314922
2361.028,0.32313537
2361.835,0.32309095
2362.643,0.3230192
2363.451,0.32294862
2364.26,0.3229097
2365.069,0.3229068
2365.879,0.32291235
2366.69,0.32289205
2367.501,0.32284129
2368.312,0.32279465
2369.125,0.32279469
2369.937,0.32284969
2370.751,0.3229312
2371.564,0.32300687
2372.379,0.32306401
2373.194,0.32309812
2374.009,0.3230916
2374.825,0.32302694
2375.642,0.32291926
2376.459,0.32281698
2377.276,0.32275695
2378.095,0.32272763
2378.913,0.32269066
2379.733,0.32263362
2380.553,0.32258281
2381.373,0.32256236
2382.194,0.32255699
2383.016,0.32252813
2383.838,0.3224609
2384.661,0.32237764
2385.484,0.32231185
2386.308,0.32228078
2387.132,0.32228787
2387.957,0.32233459
2388.783,0.32241005
2389.609,0.32247485
2390.435,0.32247632
2391.263,0.32239618
2392.09,0.32227323
2392.919,0.3221725
2393.748,0.32212801
2394.577,0.32212306
2395.407,0.32212599
2396.238,0.32213244
2397.069,0.32216862
2397.901,0.32225529
2398.733,0.32237379
2399.566,0.32247359
2400.399,0.32250288
2401.233,0.32244248
2402.068,0.32231579
2402.903,0.32217743
2403.739,0.32208432
2404.575,0.32206017
2405.412,0.32208295
2406.25,0.32211262
2407.088,0.32213466
2407.926,0.3221731
2408.766,0.32225449
2409.606,0.32236204
2410.446,0.32244152
2411.287,0.32245882
2412.128,0.32244138
2412.971,0.32245309
2413.813,0.3225219
2414.657,0.32260344
2415.5,0.32262592
2416.345,0.3225681
2417.19,0.32248652
2418.036,0.32246298
2418.882,0.32252947
2419.729,0.32264229
2420.576,0.32272442
2421.424,0.32272797
2422.272,0.32266055
2423.122,0.32256031
2423.971,0.32245827
2424.822,0.32237203
2425.673,0.32232412
2426.524,0.32234702
2427.376,0.3224533
2428.229,0.32260664
2429.082,0.32273593
2429.936,0.32279295
2430.791,0.32279589
2431.646,0.32280923
2432.501,0.32287836
2433.358,0.3229905
2434.214,0.32309715
2435.072,0.32316646
2435.93,0.32320388
2436.789,0.32322833
2437.648,0.32324637
2438.508,0.32326308
2439.368,0.32329975
2440.229,0.32338479
2441.091,0.32351799
2441.953,0.3236571
2442.816,0.32374874
2443.679,0.32377333
2444.543,0.32375165
2445.408,0.3237126
2446.273,0.32366569
2447.139,0.32360386
2448.006,0.32352001
2448.873,0.3234223
2449.74,0.32333611
2450.609,0.32329638
2451.478,0.32332372
2452.347,0.32339976
2453.217,0.32346612
2454.088,0.32346357
2454.959,0.32337239
2455.831,0.32322663
2456.704,0.32308558
2457.577,0.32299805
2458.451,0.32299025
2459.325,0.32306428
2460.2,0.32319098
2461.076,0.32330766
2461.952,0.32334939
2462.829,0.32330349
2463.707,0.32322475
2464.585,0.323184
2465.464,0.32320253
2466.343,0.32324833
2467.223,0.32329655
2468.104,0.32337717
2468.985,0.32354491
2469.867,0.32379711
2470.749,0.32403844
2471.632,0.3241474
2472.516,0.32408876
2473.4,0.32395592
2474.285,0.32388962
2475.171,0.3239537
2476.057,0.3240941
2476.944,0.32420674
2477.832,0.32423802
2478.72,0.32421522
2479.608,0.32420066
2480.498,0.32422953
2481.388,0.32430302
2482.278,0.32441478
2483.17,0.32456182
2484.062,0.32472408
2484.954,0.32485639
2485.847,0.32492213
2486.741,0.32493082
2487.636,0.32492571
2488.531,0.32493448
2489.427,0.32494325
2490.323,0.32492983
2491.22,0.32490414
2492.118,0.32489404
2493.016,0.32490032
2493.915,0.3248897
2494.814,0.32484778
2495.715,0.32481155
2496.615,0.32483115
2497.517,0.32491537
2498.419,0.3250329
2499.322,0.32516365
2500.225,0.3253223
2501.129,0.32552273
2502.034,0.3257392
2502.939,0.32591603
2503.845,0.32600845
2504.752,0.32600041
2505.659,0.32589886
2506.567,0.32574259
2507.476,0.32561618
2508.385,0.32561246
2509.295,0.3257607
2510.206,0.32599604
2511.117,0.32622214
2512.029,0.32640057
2512.942,0.32655947
2513.855,0.32672265
2514.769,0.32686023
2515.683,0.32692722
2516.598,0.32692403
2517.514,0.32689307
2518.431,0.32687613
2519.348,0.3268998
2520.266,0.32699642
2521.184,0.32718549
2522.103,0.32742298
2523.023,0.32760649
2523.944,0.32766533
2524.865,0.32763161
2525.787,0.32759652
2526.709,0.3276299
2527.632,0.32778423
2528.556,0.32813736
2529.48,0.32874418
2530.406,0.32951598
2531.331,0.33020881
2532.258,0.33062529
2533.185,0.33081238
2534.113,0.33095444
2535.041,0.33106369
2535.971,0.33087851
2536.9,0.33016277
2537.831,0.32910696
2538.762,0.3283283
2539.694,0.32845093
2540.627,0.32965063
2541.56,0.33141832
2542.494,0.33277927
2543.428,0.33305847
2544.364,0.33249548
2545.3,0.33189045
2546.236,0.33177906
2547.174,0.33208417
2548.112,0.33246736
2549.05,0.33286808
2549.99,0.33350036
2550.93,0.33431481
2551.87,0.33471359
2552.812,0.33405033
2553.754,0.33238338
2554.697,0.3304479
2555.64,0.32902855
2556.585,0.32863722
2557.529,0.32961786
2558.475,0.33224732
2559.421,0.33655118
2560.368,0.34189789
2561.316,0.34673682
2562.264,0.34905847
2563.213,0.3477299
2564.163,0.34357534
2565.113,0.33879746
2566.065,0.33541332
2567.016,0.33433322
2567.969,0.33524043
2568.922,0.33690586
2569.876,0.33814219
2570.831,0.33881462
2571.786,0.33958026
2572.742,0.34079333
2573.699,0.34202196
2574.656,0.34252186
2575.615,0.34192545
2576.573,0.34038294
2577.533,0.33837733
2578.493,0.33667642
2579.454,0.33621575
2580.416,0.33769129
2581.378,0.34100951
2582.342,0.34489034
2583.305,0.34738739
2584.27,0.34757672
2585.235,0.34635526
2586.201,0.34508763
2587.168,0.34410577
2588.135,0.34266341
2589.103,0.34027356
2590.072,0.33797947
2591.042,0.3379852
2592.012,0.34252149
2592.983,0.35267564
2593.955,0.36532193
2594.927,0.37063995
2595.9,0.36312881
2596.874,0.35046592
2597.849,0.34057786
2598.824,0.3355662
2599.8,0.33478578
2600.777,0.33695301
2601.755,0.34087537
2602.733,0.34570268
2603.712,0.35056139
2604.692,0.35398799
2605.672,0.35445613
2606.653,0.35189847
2607.635,0.34786285
2608.618,0.34397961
2609.601,0.34095715
2610.585,0.33877255
2611.57,0.33733811
2612.556,0.33698137
2613.542,0.33833806
2614.529,0.34173814
2615.517,0.34648034
2616.505,0.35069974
2617.495,0.35267634
2618.485,0.35225971
2619.475,0.35011485
2620.467,0.34648127
2621.459,0.34176738
2622.452,0.33741199
2623.446,0.33514098
2624.44,0.3357889
2625.435,0.3387982
2626.431,0.3425099
2627.428,0.345544
2628.426,0.34789902
2629.424,0.34995878
2630.423,0.35103659
2631.423,0.34993176
2632.423,0.34673797
2633.424,0.34285343
2634.426,0.33942901
2635.429,0.33673438
2636.432,0.33468352
2637.437,0.33336732
2638.442,0.33297719
2639.447,0.33342383
2640.454,0.33424387
2641.461,0.33499579
2642.469,0.33569732
2643.478,0.33667483
2644.488,0.33793057
2645.498,0.33878832
2646.509,0.33843118
2647.521,0.33693159
2648.534,0.33540437
2649.547,0.33508968
2650.561,0.33651682
2651.576,0.33918362
2652.592,0.34175114
2653.609,0.34290407
2654.626,0.34235356
2655.644,0.34094076
2656.663,0.3399185
2657.682,0.34017696
2658.703,0.34171318
2659.724,0.34355293
2660.746,0.34470702
2661.768,0.34568102
2662.792,0.34843699
2663.816,0.35462349
2664.841,0.36346509
2665.867,0.37090214
2666.894,0.37353323
2667.921,0.3731826
2668.949,0.37321986
2669.978,0.37326296
2671.008,0.36996794
2672.038,0.36294444
2673.07,0.35636962
2674.102,0.35419908
2675.135,0.35770502
2676.168,0.36505695
2677.203,0.37087953
2678.238,0.3699374
2679.274,0.36321398
2680.311,0.35571137
2681.349,0.35080571
2682.387,0.34923591
2683.426,0.35018011
2684.467,0.35207172
2685.507,0.35334793
2686.549,0.35320687
2687.591,0.35180873
2688.635,0.34996673
2689.679,0.34886604
2690.724,0.34985336
2691.769,0.35403759
2692.816,0.36142917
2693.863,0.36957461
2694.911,0.37378924
2695.96,0.37177381
2697.01,0.36662937
2698.06,0.36285952
2699.112,0.36270197
2700.164,0.36586583
2701.217,0.37022497
2702.27,0.37327361
2703.325,0.37424397
2704.38,0.37458405
2705.437,0.37650433
2706.494,0.38187932
2707.552,0.39205651
2708.61,0.40723551
2709.67,0.4242289
2710.73,0.43503258
2711.791,0.43340595
2712.853,0.42316503
2713.916,0.41267235
2714.98,0.40702234
2716.044,0.40813458
2717.109,0.41699147
2718.175,0.43394164
2719.242,0.45633294
2720.31,0.47578295
2721.379,0.48317166
2722.448,0.47908361
2723.518,0.47039893
2724.589,0.45963443
2725.661,0.44496696
2726.734,0.42706026
2727.808,0.4103072
2728.882,0.39818233
2729.958,0.39130945
2731.034,0.3887926
2732.111,0.38947396
2733.188,0.39195477
2734.267,0.39423726
2735.347,0.39488462
2736.427,0.39519975
2737.508,0.39876096
2738.59,0.40791153
2739.673,0.41913362
2740.757,0.42142184
2741.841,0.40865245
2742.927,0.38945009
2744.013,0.37354834
2745.1,0.36359104
2746.188,0.35839692
2747.277,0.3560119
2748.367,0.35484984
2749.457,0.35406199
2750.549,0.35369594
2751.641,0.35472154
2752.734,0.35858423
2753.828,0.36590822
2754.923,0.37415132
2756.019,0.37676607
2757.115,0.37012814
2758.213,0.35946165
2759.311,0.35152455
2760.41,0.34894278
2761.51,0.35109428
2762.611,0.35520752
2763.713,0.35773404
2764.816,0.35726095
2765.919,0.35529802
2767.024,0.35383748
2768.129,0.35363481
2769.235,0.35419894
2770.342,0.35431791
2771.45,0.35283146
2772.559,0.34958981
2773.669,0.34567699
2774.779,0.34250772
2775.891,0.3408869
2777.003,0.34078373
2778.116,0.34162893
2779.23,0.34274088
2780.345,0.34353833
2781.461,0.34359789
2782.578,0.34297646
2783.696,0.34254366
2784.814,0.34352754
2785.934,0.34635864
2787.054,0.34962396
2788.175,0.35048952
2789.297,0.34758321
2790.42,0.34268143
2791.544,0.33838414
2792.669,0.33590385
2793.795,0.33504736
2794.922,0.33498896
2796.049,0.33495785
2797.178,0.33463935
2798.307,0.33432308
2799.437,0.33483804
2800.568,0.33714187
2801.7,0.34150942
2802.833,0.346532
2803.967,0.34917571
2805.102,0.34753843
2806.238,0.34313143
2807.374,0.33873674
2808.512,0.33576798
2809.65,0.33415392
2810.789,0.33334722
2811.93,0.33306103
2813.071,0.33325514
2814.213,0.33374642
2815.356,0.33418678
2816.5,0.33449328
2817.645,0.33501465
2818.791,0.33601084
2819.937,0.33703158
2821.085,0.33706561
2822.233,0.33556952
2823.383,0.33317476
2824.533,0.3310799
2825.685,0.33003011
2826.837,0.3299388
2827.99,0.33018463
2829.144,0.33023749
2830.299,0.33008772
2831.455,0.33010209
2832.612,0.33056437
2833.77,0.33139352
2834.929,0.33221106
2836.089,0.33261835
2837.25,0.33241362
2838.411,0.33162814
2839.574,0.33046525
2840.737,0.32921271
2841.902,0.32812567
2843.067,0.32732299
2844.234,0.32680297
2845.401,0.32655641
2846.569,0.32661043
2847.739,0.32691344
2848.909,0.32724092
2850.08,0.32735302
2851.252,0.3272733
2852.425,0.32727348
2853.599,0.3274986
2854.774,0.32769758
2855.95,0.32744832
2857.127,0.32665948
2858.305,0.32568612
2859.484,0.32491227
2860.664,0.3243867
2861.844,0.32392521
2863.026,0.32345323
2864.209,0.3231187
2865.392,0.32305864
2866.577,0.32317834
2867.763,0.32324633
2868.949,0.32316153
2870.137,0.3230295
2871.325,0.3229603
2872.515,0.32287909
2873.705,0.3226035
2874.897,0.32208518
2876.089,0.32149506
2877.283,0.32105118
2878.477,0.32081091
2879.673,0.32064966
2880.869,0.32041867
2882.066,0.3200882
2883.265,0.31974262
2884.464,0.31948281
2885.664,0.31935198
2886.866,0.31932246
2888.068,0.31930735
2889.271,0.3191837
2890.476,0.31885064
2891.681,0.31829824
2892.887,0.31761622
2894.095,0.31693062
2895.303,0.31634979
2896.512,0.31597215
2897.723,0.31589594
2898.934,0.31615477
2900.146,0.31661791
2901.36,0.31699619
2902.574,0.31702559
2903.789,0.31667673
2905.006,0.31615273
2906.223,0.31567855
2907.441,0.31532516
2908.661,0.31502265
2909.881,0.31469031
2911.103,0.31432941
2912.325,0.31400263
2913.549,0.31375625
2914.773,0.31357544
2915.999,0.31340747
2917.225,0.31322806
2918.453,0.31308126
2919.681,0.31304159
2920.911,0.31311456
2922.142,0.31317291
2923.373,0.3130209
2924.606,0.31256284
2925.84,0.31190878
2927.075,0.31128764
2928.31,0.31084852
2929.547,0.31056042
2930.785,0.31028614
2932.024,0.30993891
2933.264,0.30956144
2934.505,0.30926104
2935.747,0.30909272
2936.99,0.30900621
2938.234,0.3088969
2939.479,0.30869307
2940.726,0.30840607
2941.973,0.3081182
2943.221,0.30793081
2944.471,0.30790106
2945.721,0.30798632
2946.973,0.30804224
2948.225,0.30790711
2949.479,0.30754454
2950.733,0.3071117
2951.989,0.30685187
2953.246,0.30687481
2954.504,0.3070367
2955.763,0.30705025
2957.023,0.30673589
2958.284,0.30616484
2959.546,0.30556811
2960.809,0.30513134
2962.073,0.30488315
2963.339,0.304747
2964.605,0.3046518
2965.873,0.30457093
2967.141,0.30448709
2968.411,0.30437629
2969.681,0.30424953
2970.953,0.3041838
2972.226,0.30425671
2973.5,0.30443281
2974.775,0.30453897
2976.051,0.30439525
2977.328,0.30398065
2978.607,0.30345666
2979.886,0.30302042
2981.167,0.30273778
2982.448,0.30252542
2983.731,0.3022767
2985.015,0.30198136
2986.3,0.30172848
2987.586,0.30161206
2988.873,0.30164702
2990.161,0.30175917
2991.45,0.30184063
2992.74,0.30182874
2994.032,0.30174212
2995.324,0.3016472
2996.618,0.30158475
2997.913,0.30153234
2999.209,0.3014441
3000.506,0.30131291
3001.804,0.30117628
3003.103,0.30106243
3004.404,0.30095203
3005.705,0.30080538
3007.008,0.30061502
3008.312,0.30042021
3009.616,0.30027204
3010.922,0.30019358
3012.23,0.30016962
3013.538,0.30016377
3014.847,0.30014543
3016.158,0.30010953
3017.469,0.30007066
3018.782,0.30003478
3020.096,0.29997703
3021.411,0.29985949
3022.727,0.29967249
3024.044,0.29945584
3025.363,0.29927936
3026.683,0.29921166
3028.003,0.29930274
3029.325,0.29956114
3030.648,0.29991781
3031.972,0.30022077
3033.298,0.30030866
3034.624,0.30012267
3035.952,0.29975522
3037.281,0.29937909
3038.611,0.2991296
3039.942,0.29904443
3041.274,0.29909217
3042.607,0.29922039
3043.942,0.29936642
3045.278,0.29945564
3046.615,0.29943459
3047.953,0.29932044
3049.292,0.29919993
3050.632,0.2991588
3051.974,0.29921333
3053.317,0.29931271
3054.661,0.29939803
3056.006,0.29944788
3057.352,0.29947363
3058.7,0.29950054
3060.048,0.29956977
3061.398,0.29973873
3062.749,0.30004072
3064.101,0.30042739
3065.455,0.30077079
3066.809,0.30095033
3068.165,0.3009479
3069.522,0.30085962
3070.88,0.30081168
3072.239,0.30086611
3073.6,0.30099699
3074.962,0.30114283
3076.325,0.30127236
3077.689,0.30140137
3079.054,0.30155567
3080.421,0.30172812
3081.788,0.30188086
3083.157,0.30198466
3084.527,0.3020491
3085.899,0.30210618
3087.271,0.30216854
3088.645,0.30221819
3090.02,0.30222907
3091.396,0.30219188
3092.774,0.302119
3094.153,0.30204323
3095.532,0.3020218
3096.914,0.30211705
3098.296,0.30233972
3099.679,0.30260253
3101.064,0.30275904
3102.45,0.30271212
3103.837,0.30249505
3105.226,0.30224137
3106.616,0.30208164
3108.007,0.30205977
3109.399,0.30213266
3110.792,0.30222564
3112.187,0.30228214
3113.583,0.3022809
3114.98,0.30222729
3116.378,0.30213872
3117.778,0.30203525
3119.179,0.30193671
3120.581,0.30186319
3121.985,0.30183146
3123.389,0.3018498
3124.795,0.30191946
3126.202,0.30203915
3127.611,0.30220103
3129.02,0.30237562
3130.431,0.3025089
3131.844,0.30254831
3133.257,0.30248315
3134.672,0.30236571
3136.088,0.30228225
3137.505,0.30228976
3138.924,0.30237486
3140.344,0.30247958
3141.765,0.302568
3143.187,0.30266442
3144.611,0.3028175
3146.036,0.30303021
3147.462,0.30323776
3148.89,0.30336188
3150.319,0.30338652
3151.749,0.30337214
3153.18,0.30339985
3154.613,0.30350963
3156.047,0.30368538
3157.482,0.30388382
3158.919,0.30406267
3160.357,0.30419665
3161.796,0.30428558
3163.236,0.3043518
3164.678,0.30442556
3166.121,0.30452065
3167.566,0.30462968
3169.011,0.30474145
3170.458,0.30484997
3171.907,0.30494769
3173.356,0.30502525
3174.807,0.30510198
3176.26,0.30525117
3177.713,0.30555215
3179.168,0.30598972
3180.624,0.30640808
3182.082,0.30660705
3183.541,0.30649987
3185.001,0.30618626
3186.463,0.30587282
3187.926,0.30573129
3189.39,0.30582494
3190.856,0.30611787
3192.323,0.30651001
3193.791,0.3068676
3195.26,0.30707214
3196.731,0.30708987
3198.204,0.30699876
3199.677,0.30693232
3201.152,0.30697689
3202.629,0.30711375
3204.106,0.3072547
3205.585,0.30733356
3207.066,0.30736994
3208.548,0.30745608
3210.031,0.30768222
3211.515,0.30806529
3213.001,0.30853249
3214.488,0.3089578
3215.977,0.30921183
3217.467,0.30920887
3218.958,0.30895334
3220.451,0.30856586
3221.945,0.30823304
3223.441,0.3080794
3224.938,0.30807221
3226.436,0.30807056
3227.936,0.30798331
3229.437,0.3078586
3230.939,0.30780767
3232.443,0.30785701
3233.948,0.30791043
3235.455,0.30785836
3236.963,0.30770094
3238.472,0.30754592
3239.983,0.30750415
3241.495,0.30759748
3243.008,0.30776429
3244.523,0.30793209
3246.04,0.30807414
3247.558,0.30820518
3249.077,0.30833937
3250.598,0.30847422
3252.12,0.30861613
3253.643,0.30879057
3255.168,0.30899983
3256.694,0.30916364
3258.222,0.30914172
3259.751,0.30885373
3261.282,0.3083809
3262.814,0.30793471
3264.347,0.3077049
3265.882,0.30773764
3267.418,0.30794098
3268.956,0.30817842
3270.495,0.30834397
3272.036,0.30838551
3273.578,0.30831411
3275.122,0.30820477
3276.667,0.30815437
3278.213,0.30820915
3279.761,0.3083338
3281.31,0.30846053
3282.861,0.30856454
3284.413,0.30867167
3285.967,0.30879998
3287.522,0.30892195
3289.079,0.30900903
3290.637,0.30910337
3292.196,0.30930239
3293.757,0.30964772
3295.32,0.31003411
3296.884,0.31026411
3298.449,0.31021818
3300.016,0.30997313
3301.585,0.30974128
3303.155,0.30968328
3304.726,0.30978086
3306.299,0.30988596
3307.873,0.30988094
3309.449,0.30978021
3311.026,0.30969035
3312.605,0.30969246
3314.185,0.30977214
3315.767,0.30985664
3317.351,0.30989768
3318.936,0.30991431
3320.522,0.30996775
3322.11,0.31011443
3323.699,0.31037788
3325.29,0.3107377
3326.882,0.31111459
3328.476,0.31137457
3330.072,0.31138269
3331.669,0.31109786
3333.267,0.31062044
3334.867,0.31013526
3336.469,0.30979279
3338.072,0.30963342
3339.676,0.30960595
3341.282,0.30963488
3342.89,0.30966559
3344.499,0.30967788
3346.11,0.30968118
3347.722,0.30969582
3349.336,0.30971162
3350.952,0.30966326
3352.569,0.30946228
3354.187,0.30908088
3355.807,0.30860343
3357.429,0.30818404
3359.052,0.30794262
3360.677,0.30789035
3362.303,0.3079375
3363.931,0.30796041
3365.56,0.30786825
3367.191,0.30763337
3368.824,0.30728152
3370.458,0.30685818
3372.093,0.30639548
3373.731,0.30590158
3375.37,0.30537914
3377.01,0.30484718
3378.652,0.30434422
3380.296,0.30390971
3381.941,0.30356331
3383.588,0.3033035
3385.236,0.30311865
3386.886,0.30300441
3388.538,0.30296861
3390.191,0.30302016
3391.846,0.3031436
3393.502,0.30327985
3395.16,0.30333937
3396.82,0.30325288
3398.481,0.30302436
3400.144,0.30272992
3401.809,0.3024445
3403.475,0.3021538
3405.143,0.30173636
3406.812,0.30105053
3408.483,0.30005599
3410.156,0.29885644
3411.83,0.29762236
3413.506,0.29647505
3415.183,0.29544222
3416.862,0.29451282
3418.543,0.29369985
3420.226,0.29303053
3421.91,0.29248324
3423.596,0.29197403
3425.283,0.29144523
3426.972,0.29098017
3428.663,0.29081538
3430.355,0.29120872
3432.049,0.29226789
3433.745,0.29388537
3435.442,0.29582656
3437.141,0.29786075
3438.842,0.29981587
3440.545,0.30154329
3442.249,0.30288998
3443.954,0.30374945
3445.662,0.30415132
3447.371,0.30428305
3449.082,0.30439212
3450.794,0.30464266
3452.509,0.30504195
3454.224,0.3054954
3455.942,0.30592145
3457.661,0.30632262
3459.382,0.30675492
3461.105,0.30724967
3462.829,0.30776621
3464.556,0.30822478
3466.283,0.30857524
3468.013,0.30883224
3469.744,0.30904364
3471.477,0.30923056
3473.212,0.30936759
3474.948,0.30942676
3476.686,0.30942145
3478.426,0.30939851
3480.168,0.30938582
3481.911,0.30937429
3483.656,0.30937165
3485.403,0.30945168
3487.152,0.30970109
3488.902,0.31009152
3490.654,0.31042795
3492.408,0.31046532
3494.164,0.3100931
3495.921,0.30940228
3497.68,0.3085758
3499.441,0.30773223
3501.204,0.30687208
3502.968,0.30594236
3504.734,0.3049221
3506.502,0.30387774
3508.272,0.30299238
3510.043,0.30255262
3511.817,0.30284257
3513.592,0.30396768
3515.368,0.3057606
3517.147,0.30787121
3518.927,0.30996447
3520.71,0.3118394
3522.494,0.3134074
3524.28,0.31463517
3526.067,0.31555746
3527.857,0.31630942
3529.648,0.31706634
3531.441,0.31789966
3533.236,0.31870741
3535.032,0.31931098
3536.831,0.31962607
3538.631,0.31973517
3540.433,0.31980079
3542.237,0.31993378
3544.043,0.32014468
3545.851,0.32039258
3547.66,0.32064848
3549.471,0.32091075
3551.284,0.32118568
3553.099,0.32147013
3554.916,0.32175202
3556.735,0.32201669
3558.555,0.32225567
3560.378,0.32248043
3562.202,0.32272605
3564.028,0.32303115
3565.856,0.32340376
3567.686,0.32380179
3569.518,0.32415628
3571.351,0.3244174
3573.187,0.32458313
3575.024,0.3246933
3576.863,0.32480113
3578.704,0.32495553
3580.547,0.32519235
3582.392,0.32551713
3584.239,0.32588337
3586.088,0.326202
3587.938,0.32640633
3589.791,0.32652522
3591.645,0.32667771
3593.501,0.32696736
3595.359,0.32736816
3597.22,0.3277303
3599.082,0.32791399
3600.946,0.32791214
3602.811,0.32784087
3604.679,0.32782059
3606.549,0.32788944
3608.421,0.3280324
3610.294,0.3282526
3612.17,0.32857211
3614.047,0.32896577
3615.926,0.32933349
3617.808,0.32956875
3619.691,0.32965159
3621.576,0.32965968
3623.463,0.32968873
3625.353,0.32977762
3627.244,0.32990678
3629.137,0.33005293
3631.032,0.33022442
3632.929,0.33044639
3634.828,0.33072321
3636.729,0.33102015
3638.632,0.33128376
3640.537,0.33148317
3642.444,0.3316423
3644.353,0.33183072
3646.263,0.33210777
3648.176,0.33246199
3650.091,0.3328087
3652.008,0.33305481
3653.927,0.33317679
3655.848,0.33323453
3657.771,0.33331409
3659.696,0.3334618
3661.623,0.33366529
3663.552,0.33389056
3665.483,0.3341166
3667.416,0.33433841
3669.351,0.33455406
3671.288,0.33476368
3673.227,0.33498285
3675.168,0.33523906
3677.111,0.33554583
3679.057,0.33587863
3681.004,0.33618067
3682.953,0.33639833
3684.905,0.33651951
3686.858,0.33658224
3688.814,0.33665113
3690.771,0.33677965
3692.731,0.33698168
3694.693,0.33723685
3696.656,0.33751693
3698.622,0.33780468
3700.59,0.33809271
3702.56,0.3383712
3704.532,0.33863015
3706.507,0.33887534
3708.483,0.3391299
3710.461,0.3394132
3712.442,0.33972044
3714.425,0.34002566
3716.409,0.34030649
3718.396,0.34056017
3720.385,0.34079919
3722.376,0.34103937
3724.37,0.34128983
3726.365,0.34154826
3728.362,0.3417983
3730.362,0.34202134
3732.364,0.34221528
3734.368,0.34240451
3736.374,0.342628
3738.382,0.34291802
3740.392,0.34328771
3742.405,0.34372912
3744.419,0.3442042
3746.436,0.34464636
3748.455,0.34498564
3750.476,0.34519645
3752.499,0.34532329
3754.525,0.34545057
3756.553,0.34564363
3758.582,0.34591259
3760.614,0.34622528
3762.649,0.34654083
3764.685,0.34683332
3766.724,0.34710176
3768.764,0.34736816
3770.807,0.34766743
3772.853,0.34801829
3774.9,0.34839929
3776.95,0.34876014
3779.001,0.34906232
3781.056,0.34930961
3783.112,0.34954138
3785.17,0.34979179
3787.231,0.35006245
3789.294,0.35033214
3791.359,0.35058831
3793.427,0.35084506
3795.496,0.35112669
3797.568,0.35143945
3799.643,0.35176544
3801.719,0.35208211
3803.798,0.35238269
3805.879,0.35267434
3807.962,0.35295847
3810.048,0.35322276
3812.135,0.35345091
3814.225,0.35363677
3816.318,0.35378859
3818.412,0.35392513
3820.509,0.35407503
3822.609,0.35427308
3824.71,0.35453972
3826.814,0.35485988
3828.92,0.35518984
3831.029,0.35549171
3833.139,0.35576222
3835.252,0.35602079
3837.368,0.35627719
3839.486,0.35651983
3841.606,0.35674152
3843.728,0.35696373
3845.853,0.35722509
3847.98,0.35754065
3850.109,0.35788317
3852.241,0.35821217
3854.375,0.35851224
3856.512,0.35879909
3858.65,0.35909027
3860.792,0.35938254
3862.935,0.35966442
3865.081,0.35994163
3867.229,0.36023648
3869.38,0.36055417
3871.533,0.36086951
3873.689,0.36115224
3875.846,0.36140746
3878.007,0.36167735
3880.169,0.36200139
3882.334,0.36237605
3884.502,0.36275725
3886.672,0.36309658
3888.844,0.36337337
3891.019,0.36359954
3893.196,0.36380527
3895.375,0.36402112
3897.557,0.36427013
3899.742,0.36456176
3901.929,0.36488769
3904.118,0.36522384
3906.31,0.36554125
3908.504,0.36582538
3910.7,0.36608558
3912.9,0.36634162
3915.101,0.36660564
3917.305,0.36687722
3919.512,0.36715822
3921.721,0.36745955
3923.932,0.36778656
3926.146,0.36812282
3928.363,0.3684419
3930.581,0.368738
3932.803,0.36903496
3935.027,0.3693573
3937.253,0.36970025
3939.482,0.37003577
3941.714,0.37034347
3943.948,0.37062714
3946.184,0.37090045
3948.423,0.37116789
3950.665,0.37143225
3952.909,0.37170618
3955.156,0.37200763
3957.405,0.37234305
3959.657,0.37270559
3961.911,0.37308754
3964.168,0.37349127
3966.427,0.37391785
3968.689,0.37435555
3970.954,0.37478052
3973.221,0.37517976
3975.491,0.37556131
3977.763,0.37594865
3980.038,0.3763594
3982.315,0.37679088
3984.595,0.37721875
3986.878,0.37761238
3989.163,0.37795814
3991.451,0.37827208
3993.742,0.37859097
3996.035,0.37894667
3998.33,0.37934718
4000.629,0.37977847
4002.93,0.38022236
4005.233,0.38066519
4007.54,0.38109372
4009.849,0.38149181
4012.16,0.38184899
4014.475,0.3821743
4016.791,0.38249458
4019.111,0.3828378
4021.433,0.38321562
4023.758,0.38361731
4026.086,0.38401742
4028.416,0.38439702
4030.749,0.38475786
4033.085,0.38512134
4035.423,0.38551106
4037.764,0.38593857
4040.108,0.3864017
4042.454,0.3868977
4044.804,0.38742613
4047.155,0.38797643
4049.51,0.38852348
4051.867,0.38904255
4054.228,0.38953058
4056.59,0.3900063
4058.956,0.39048906
4061.324,0.39098293
4063.695,0.39148124
4066.069,0.39198152
4068.446,0.3924863
4070.825,0.39299767
4073.207,0.39351778
4075.592,0.39405539
4077.98,0.39462255
4080.371,0.39521702
4082.764,0.39581659
4085.16,0.39639653
4087.559,0.39695492
4089.961,0.39751081
4092.365,0.39807926
4094.773,0.39865214
4097.183,0.39921196
4099.596,0.39975668
4102.012,0.40030353
4104.43,0.40087116
4106.852,0.40146396
4109.276,0.40207322
4111.703,0.40268816
4114.133,0.40330428
4116.566,0.40392805
4119.002,0.40457688
4121.441,0.40526394
4123.882,0.40598133
4126.327,0.40670495
4128.774,0.4074195
4131.224,0.40813809
4133.677,0.40889026
4136.133,0.40968171
4138.592,0.41047537
4141.054,0.41121321
4143.519,0.41186941
4145.987,0.41247423
4148.457,0.41309341
4150.931,0.41378202
4153.407,0.41454851
4155.887,0.41535794
4158.369,0.41615849
4160.854,0.41691577
4163.343,0.41763432
4165.834,0.4183519
4168.328,0.41911318
4170.826,0.41992879
4173.326,0.42076392
4175.829,0.42156124
4178.335,0.42229313
4180.844,0.42298448
4183.356,0.42369755
4185.872,0.42450524
4188.39,0.4254938
4190.911,0.42678589
4193.435,0.42854644
4195.963,0.43095904
4198.493,0.43420006
4201.026,0.43843371
4203.563,0.44380059
4206.102,0.450371
4208.645,0.45808193
4211.19,0.4667284
4213.739,0.47604715
4216.291,0.48582718
4218.846,0.49594407
4221.404,0.50627169
4223.965,0.51655306
4226.529,0.52636643
4229.096,0.5352199
4231.666,0.54263596
4234.24,0.54810808
4236.816,0.55111272
4239.396,0.55135182
4241.979,0.5488392
4244.565,0.54338465
4247.154,0.53432463
4249.746,0.52171749
4252.341,0.50784733
4254.94,0.49645197
4257.542,0.4905252
4260.146,0.49128478
4262.754,0.49818552
4265.366,0.50884726
4267.98,0.51941402
4270.598,0.52661625
4273.219,0.5299332
4275.843,0.53089165
4278.47,0.53093319
4281.1,0.53070664
4283.734,0.53054446
4286.371,0.53068227
4289.011,0.53098125
4291.655,0.53084974
4294.301,0.52972099
4296.951,0.52760151
4299.604,0.52506336
4302.261,0.52272551
4304.92,0.52076838
4307.583,0.51886678
4310.25,0.51654657
4312.919,0.51365885
4315.592,0.51052044
4318.268,0.50762097
4320.948,0.50523471
4323.631,0.50329287
4326.317,0.50155238
4329.006,0.49984937
4331.699,0.49819845
4334.395,0.49670809
4337.095,0.49546393
4339.797,0.49449326
4342.504,0.49379274
4345.213,0.49335346
4347.926,0.49315617
4350.642,0.49317064
4353.362,0.49335672
4356.085,0.49366783
4358.811,0.49405438
4361.541,0.49447741
4364.275,0.494918
4367.011,0.49536667
4369.751,0.49580146
4372.495,0.49620003
4375.242,0.49658542
4377.992,0.4970528
4380.746,0.4977249
4383.504,0.49866774
4386.264,0.49984222
4389.029,0.50113982
4391.796,0.50245565
4394.567,0.5037349
4397.342,0.50495808
4400.12,0.50611521
4402.902,0.50720512
4405.687,0.50825697
4408.476,0.50932536
4411.268,0.51045836
4414.064,0.511664
4416.863,0.51291457
4419.666,0.51417406
4422.472,0.51541812
4425.282,0.51662678
4428.096,0.51777039
4430.913,0.51880423
4433.734,0.51970145
4436.558,0.52048416
4439.386,0.52122894
4442.217,0.52203606
4445.052,0.52297556
4447.891,0.52403923
4450.733,0.52513465
4453.579,0.5261403
4456.428,0.5269845
4459.281,0.52768885
4462.138,0.52833769
4464.998,0.52900883
4467.863,0.52971751
4470.73,0.53042809
4473.602,0.53110408
4476.477,0.53174051
4479.355,0.53235316
4482.238,0.5329522
4485.124,0.53353772
4488.014,0.53409944
4490.908,0.53461831
4493.805,0.53507297
4496.706,0.53546446
4499.611,0.53582929
4502.519,0.53622415
4505.431,0.53669749
4508.347,0.53725801
4511.267,0.53787756
4514.191,0.53853003
4517.118,0.53922284
4520.049,0.53998401
4522.984,0.54081879
4525.923,0.54169628
4528.865,0.54257404
4531.812,0.54341351
4534.762,0.54418211
4537.716,0.5448735
4540.674,0.54550837
4543.635,0.54612828
4546.601,0.5467892
4549.57,0.54754579
4552.543,0.54842082
4555.521,0.54937566
4558.502,0.55031213
4561.487,0.55111789
4564.475,0.55173352
4567.468,0.55219807
4570.465,0.55263349
4573.465,0.55318025
4576.47,0.55391566
4579.478,0.55481939
4582.491,0.55579252
4585.507,0.55671565
4588.527,0.55751132
4591.551,0.55816406
4594.58,0.55871812
4597.612,0.55928553
4600.648,0.56001003
4603.688,0.56095134
4606.732,0.5620076
4609.781,0.56298037
4612.833,0.56375688
4615.889,0.56441946
4618.949,0.56515729
4622.014,0.56606487
4625.082,0.56705877
4628.155,0.56796888
4631.231,0.56869863
4634.312,0.56929894
4637.397,0.56990312
4640.485,0.57062503
4643.578,0.57151752
4646.675,0.57255724
4649.777,0.57364228
4652.882,0.57463087
4655.991,0.57543442
4659.105,0.57608868
4662.223,0.57673553
4665.345,0.57749858
4668.471,0.57838866
4671.601,0.57934418
4674.735,0.58033667
4677.874,0.58139039
4681.017,0.58249475
4684.164,0.58354689
4687.315,0.58444134
4690.471,0.58519703
4693.63,0.5859533
4696.794,0.58682488
4699.962,0.58777198
4703.135,0.58865719
4706.312,0.58940596
4709.493,0.59009433
4712.678,0.59087386
4715.868,0.59184927
4719.062,0.59301033
4722.26,0.59425352
4725.463,0.59543851
4728.669,0.59646213
4731.881,0.59731776
4735.096,0.59809241
4738.316,0.59888318
4741.541,0.59971721
4744.769,0.60054591
4748.002,0.60130464
4751.24,0.60198144
4754.482,0.60262463
4757.728,0.60329067
4760.979,0.60400146
4764.234,0.60474732
4767.494,0.6055086
4770.758,0.60628048
4774.026,0.60708745
4777.299,0.60795017
4780.577,0.60881916
4783.859,0.60959465
4787.145,0.61022571
4790.436,0.61077047
4793.732,0.61135118
4797.032,0.61206316
4800.336,0.61292975
4803.645,0.61391555
4806.959,0.6149419
4810.277,0.61590586
4813.6,0.61671736
4816.927,0.61735148
4820.259,0.61786251
4823.596,0.61836182
4826.937,0.61898196
4830.283,0.61982367
4833.633,0.62090258
4836.988,0.62209253
4840.348,0.62314911
4843.712,0.62385549
4847.081,0.62418597
4850.455,0.6243181
4853.833,0.62450352
4857.216,0.62489622
4860.604,0.62547759
4863.996,0.62614563
4867.393,0.62685027
4870.795,0.62760009
4874.202,0.62837572
4877.613,0.62911565
4881.03,0.62980024
4884.451,0.63051291
4887.876,0.6313603
4891.307,0.63233508
4894.742,0.63327052
4898.182,0.63393989
4901.627,0.63424117
4905.077,0.63429338
4908.532,0.63434793
4911.991,0.63465028
4915.456,0.63534815
4918.925,0.63641187
4922.399,0.63760873
4925.878,0.63862573
4929.362,0.63928558
4932.851,0.63965765
4936.345,0.6399764
4939.844,0.64046898
4943.347,0.64125588
4946.856,0.64234723
4950.37,0.64362146
4953.888,0.64482187
4957.412,0.6456898
4960.941,0.64615786
4964.474,0.64638254
4968.013,0.64659246
4971.556,0.64692627
4975.105,0.64740119
4978.659,0.64797603
4982.218,0.64861314
4985.782,0.64929914
4989.351,0.65007307
4992.925,0.65100051
4996.504,0.65204139
5000.088,0.65301848
5003.678,0.65385902
5007.272,0.65483228
5010.872,0.65635436
5014.477,0.65848221
5018.087,0.66062495
5021.703,0.66183881
5025.323,0.66159722
5028.949,0.66030558
5032.58,0.65891059
5036.216,0.6581297
5039.857,0.65810756
5043.504,0.65858784
5047.156,0.65925687
5050.813,0.65995658
5054.475,0.6606536
5058.143,0.66131261
5061.816,0.66187576
5065.495,0.66240607
5069.179,0.66318496
5072.868,0.66452067
5076.562,0.66636692
5080.262,0.66815971
5083.967,0.66918843
5087.678,0.66922278
5091.394,0.6687213
5095.115,0.66839234
5098.842,0.66862334
5102.574,0.66932275
5106.312,0.67017821
5110.055,0.67096384
5113.804,0.67164222
5117.558,0.67226481
5121.318,0.67285309
5125.083,0.6734145
5128.854,0.67411453
5132.63,0.67537596
5136.412,0.67760396
5140.199,0.68061769
5143.992,0.68337742
5147.791,0.68457438
5151.595,0.68377126
5155.405,0.68186092
5159.22,0.68026434
5163.041,0.67980904
5166.868,0.68035676
5170.7,0.68123909
5174.538,0.68190614
5178.382,0.68230017
5182.231,0.68282758
5186.086,0.68402374
5189.947,0.68611843
5193.814,0.68882595
5197.686,0.69160981
5201.564,0.6941565
5205.448,0.69641683
5209.338,0.69811045
5213.233,0.69853373
5217.134,0.69730325
5221.041,0.69522405
5224.954,0.69390388
5228.873,0.69434625
5232.798,0.69606949
5236.728,0.69764473
5240.665,0.69808502
5244.607,0.69760954
5248.555,0.69706569
5252.51,0.69699896
5256.47,0.6974671
5260.436,0.69841904
5264.408,0.69985622
5268.386,0.70162852
5272.37,0.7034044
5276.36,0.70504389
5280.356,0.70679882
5284.358,0.70886548
5288.367,0.71078751
5292.381,0.71163779
5296.401,0.7109858
5300.428,0.70948922
5304.46,0.70829878
5308.499,0.70806432
5312.544,0.70864973
5316.595,0.70956412
5320.652,0.71039581
5324.715,0.71092988
5328.785,0.71132648
5332.86,0.71245039
5336.942,0.7156301
5341.031,0.72146117
5345.125,0.72850376
5349.226,0.73345533
5353.333,0.73365669
5357.446,0.72973995
5361.566,0.72493645
5365.692,0.72204611
5369.824,0.72170571
5373.962,0.72286893
5378.107,0.72425067
5382.259,0.7253554
5386.417,0.72645237
5390.581,0.72793364
5394.751,0.72995719
5398.928,0.73270462
5403.112,0.73684902
5407.302,0.74347475
5411.498,0.75309023
5415.701,0.76428875
5419.911,0.77351656
5424.127,0.77751146
5428.349,0.77682446
5432.579,0.77566699
5436.814,0.77808301
5441.057,0.78535952
5445.305,0.79666398
5449.561,0.81138753
5453.823,0.83052613
5458.092,0.85541135
5462.368,0.88530697
5466.65,0.91713452
5470.939,0.94858922
5475.234,0.98093747
5479.537,0.0101751769
5483.846,0.0106098035
5488.162,0.0111427631
5492.484,0.0118409995
5496.814,0.0128182745
5501.15,0.0142195747
5505.493,0.0162406697
5509.843,0.0191561215
5514.2,0.0225107919
5518.564,0.02414838
5522.934,0.0220621278
5527.312,0.0172858948
5531.696,0.0127940493
5536.087,0.92340314
5540.486,0.65085803
5544.891,0.45729132
5549.303,0.32535451
5553.723,0.23920171
5558.149,0.18747239
5562.582,0.16004237
5567.023,0.15299642
5571.47,0.15777544
5575.925,0.16958458
5580.387,0.1857143
5584.856,0.20356705
5589.332,0.22143702
5593.815,0.2383284
5598.305,0.25386918
5602.803,0.26802856
5607.307,0.28104604
5611.819,0.29328515
5616.339,0.30498439
5620.865,0.3160073
5625.399,0.32588943
5629.94,0.33426703
5634.489,0.34141868
5639.044,0.34840602
5643.607,0.3563729
5648.178,0.36550279
5652.756,0.37484715
5657.341,0.383209
5661.934,0.39005187
5666.534,0.39568631
5671.142,0.4008283
5675.757,0.40604764
5680.379,0.41148277
5685.01,0.4168773
5689.647,0.42182163
5694.293,0.42605261
5698.945,0.42964684
5703.606,0.43300387
5708.274,0.43664171
5712.949,0.44089789
5717.633,0.44568723
5722.324,0.45053249
5727.022,0.45490279
5731.729,0.4585828
5736.443,0.4617811
5741.165,0.4648599
5745.894,0.46786585
5750.631,0.47040064
5755.377,0.47212826
5760.13,0.47343904
5764.89,0.47547064
5769.659,0.4791256
5774.436,0.48403916
5779.22,0.48896396
5784.012,0.49302055
5788.813,0.49623935
5793.621,0.4991284
5798.437,0.5019446
5803.262,0.50442325
5808.094,0.50617601
5812.934,0.50726317
5817.782,0.5083873
5822.639,0.51044117
5827.503,0.51367424
5832.376,0.51744789
5837.257,0.52094198
5842.146,0.52385445
5847.043,0.52641385
5851.948,0.52891139
5856.862,0.53125629
5861.783,0.53300224
5866.714,0.53382264
5871.652,0.53389809
5876.598,0.53385747
5881.553,0.53436603
5886.517,0.53573805
5891.488,0.53791752
5896.468,0.54073258
5901.457,0.54398801
5906.454,0.54732778
5911.459,0.55018831
5916.473,0.55203152
5921.495,0.55270597
5926.526,0.55267627
5931.565,0.55291894
5936.613,0.5542863
5941.67,0.55671809
5946.735,0.5593738
5951.809,0.56152367
5956.891,0.56298813
5961.982,0.56400025
5967.082,0.56494321
5972.19,0.56607962
5977.307,0.56735289
5982.433,0.56844503
5987.568,0.56911651
5992.711,0.56952966
5997.864,0.57012647
6003.025,0.57113873
6008.195,0.5723618
6013.374,0.57345113
6018.562,0.5743245
6023.759,0.57507522
6028.964,0.5754977
6034.179,0.57503294
6039.403,0.5734789
6044.636,0.57193739
6049.878,0.57230779
6055.129,0.5750571
6060.389,0.5786374
6065.658,0.58118955
6070.936,0.58199971
6076.224,0.58183152
6081.52,0.58203213
6086.826,0.58321326
6092.141,0.58499444
6097.466,0.58662997
6102.8,0.58758136
6108.143,0.58782235
6113.495,0.58785511
6118.857,0.58831876
6124.228,0.58950847
6129.609,0.59128036
6134.999,0.59324389
6140.398,0.59501167
6145.807,0.59639978
6151.226,0.59749772
6156.654,0.5985097
6162.091,0.59953442
6167.539,0.60051592
6172.996,0.60140673
6178.462,0.60235175
6183.938,0.6036919
6189.424,0.60568788
6194.92,0.60824815
6200.425,0.61100023
6205.94,0.61356103
6211.465,0.61573495
6217.0,0.6175613
6222.544,0.61920096
6228.099,0.62075284
6233.663,0.62220445
6239.237,0.62353752
6244.822,0.62483313
6250.416,0.62623331
6256.02,0.62780255
6261.635,0.62945267
6267.259,0.63101122
6272.893,0.63236587
6278.538,0.63354736
6284.193,0.63467859
6289.858,0.6358579
6295.533,0.6370906
6301.218,0.63833054
6306.914,0.63957211
6312.619,0.64087566
6318.336,0.64227846
6324.062,0.64367323
6329.799,0.64483316
6335.546,0.64562645
6341.304,0.64628975
6347.072,0.64733043
6352.851,0.64902329
6358.64,0.65110101
6364.44,0.65298379
6370.25,0.65428575
6376.071,0.65516536
6381.903,0.65610942
6387.745,0.65738719
6393.598,0.65886246
6399.461,0.66022204
6405.335,0.66125655
6411.221,0.66202387
6417.116,0.66277288
6423.023,0.66369841
6428.941,0.66485153
6434.869,0.66617465
6440.809,0.66753605
6446.759,0.6688411
6452.72,0.67019738
6458.693,0.67186509
6464.676,0.67392389
6470.671,0.67598191
6476.676,0.67729797
6482.693,0.67744044
6488.721,0.67698748
6494.76,0.67720289
6500.81,0.67875808
6506.872,0.68121311
6512.945,0.68362495
6519.029,0.68536844
6525.124,0.68657876
6531.231,0.68789004
6537.35,0.68972547
6543.48,0.69191101
6549.621,0.69391918
6555.774,0.69539317
6561.938,0.69647665
6568.114,0.69764601
6574.302,0.69919828
6580.501,0.70091583
6586.712,0.70230159
6592.934,0.70315073
6599.169,0.70387106
6605.415,0.70517046
6611.673,0.70733214
6617.943,0.70975084
6624.224,0.71116862
6630.518,0.71071781
6636.823,0.70908137
6643.141,0.70800274
6649.47,0.7085226
6655.812,0.71036069
6662.166,0.7124859
6668.532,0.71384737
6674.91,0.71412802
6681.3,0.71407145
6687.702,0.71478037
6694.117,0.71668315
6700.544,0.71918134
6706.983,0.72109464
6713.435,0.72161623
6719.899,0.72100802
6726.375,0.7202259
6732.864,0.72000204
6739.365,0.72046052
6745.879,0.72139025
6752.406,0.72265357
6758.945,0.72428536
6765.497,0.72621751
6772.062,0.72798065
6778.639,0.72880254
6785.229,0.72828773
6791.832,0.72702181
6798.448,0.72613088
6805.076,0.72626239
6811.718,0.72719086
6818.372,0.72825485
6825.039,0.72913881
6831.72,0.73019741
6838.413,0.73189113
6845.12,0.73404259
6851.84,0.73571588
6858.573,0.73600209
6865.319,0.73509203
6872.078,0.73410576
6878.851,0.73388081
6885.637,0.73445288
6892.437,0.73536394
6899.25,0.73611968
6906.076,0.73648927
6912.916,0.73657281
6919.769,0.73672315
6926.636,0.73738478
6933.517,0.7388406
6940.411,0.74094852
6947.319,0.74310201
6954.241,0.74462194
6961.176,0.74535372
6968.125,0.74573841
6975.089,0.74624515
6982.066,0.74694684
6989.057,0.74765823
6996.062,0.74830705
7003.081,0.74906777
7010.114,0.75017606
7017.161,0.75171141
7024.223,0.75354406
7031.298,0.75534627
7038.388,0.75666381
7045.492,0.75718089
7052.611,0.75702411
7059.743,0.7566785
7066.891,0.75658819
7074.052,0.75691506
7081.229,0.75761737
7088.419,0.75863491
7095.625,0.75990337
7102.845,0.76126127
7110.079,0.7625039
7117.329,0.76361331
7124.593,0.76485501
7131.872,0.76651899
7139.166,0.7685617
7146.475,0.77051418
7153.799,0.77180789
7161.137,0.77226474
7168.491,0.77230857
7175.86,0.77264082
7183.244,0.77367359
7190.643,0.77521293
7198.058,0.77665098
7205.487,0.77751198
7212.933,0.7778754
7220.393,0.77822033
7227.869,0.77894697
7235.36,0.78014229
7242.867,0.78169017
7250.39,0.78341722
7257.928,0.78509109
7265.481,0.78642086
7273.051,0.78721201
7280.636,0.78754387
7288.237,0.78774403
7295.854,0.7881911
7303.487,0.78913787
7311.135,0.79061375
7318.8,0.79235595
7326.481,0.7938601
7334.178,0.79468129
7341.891,0.79479977
7349.62,0.79465532
7357.366,0.79474949
7365.128,0.79526269
7372.906,0.7960474
7380.701,0.79690146
7388.512,0.79776179
7396.34,0.79865063
7404.184,0.799533
7412.045,0.80034635
7419.922,0.80116304
7427.817,0.80222939
7435.728,0.80375489
7443.656,0.80563008
7451.601,0.80739025
7459.562,0.80852895
7467.541,0.80891818
7475.537,0.80890992
7483.55,0.8090118
7491.58,0.80948445
7499.628,0.81023646
7507.692,0.81102247
7515.774,0.81169288
7523.874,0.81227561
7531.99,0.81288431
7540.125,0.81361034
7548.277,0.8144677
7556.446,0.81540618
7564.633,0.81634142
7572.838,0.81720546
7581.061,0.81797626
7589.302,0.81866545
7597.56,0.8192789
7605.837,0.81980815
7614.131,0.82026541
7622.444,0.82070454
7630.774,0.82118385
7639.123,0.82171516
7647.491,0.82225833
7655.876,0.82278535
7664.28,0.82332606
7672.702,0.82394705
7681.143,0.82468267
7689.602,0.82548441
7698.08,0.82624671
7706.577,0.82689469
7715.093,0.82745054
7723.627,0.82800476
7732.18,0.82861571
7740.752,0.82924411
7749.343,0.82979963
7757.953,0.83025355
7766.583,0.8306797
7775.231,0.83118208
7783.899,0.83178823
7792.586,0.83243291
7801.292,0.83303897
7810.018,0.83359772
7818.764,0.83415709
7827.529,0.83475369
7836.313,0.83537017
7845.117,0.83596337
7853.942,0.83651395
7862.786,0.83704022
7871.649,0.83756414
7880.533,0.83808084
7889.437,0.83857643
7898.361,0.83907013
7907.305,0.83962815
7916.27,0.8403115
7925.254,0.84110975
7934.26,0.84193678
7943.285,0.84269914
7952.331,0.84336792
7961.398,0.84398677
7970.485,0.84461429
7979.594,0.84527831
7988.723,0.84597489
7997.872,0.84669396
8007.043,0.84742781
8016.235,0.84815648
8025.448,0.84884464
8034.682,0.84946205
8043.937,0.85000813
8053.214,0.85051581
8062.512,0.85102618
8071.832,0.85156256
8081.173,0.8521181
8090.535,0.85266899
8099.92,0.85319172
8109.326,0.85368203
8118.754,0.85415016
8128.204,0.8546093
8137.676,0.855053
8147.169,0.85545825
8156.686,0.85581157
8166.224,0.85613132
8175.785,0.8564573
8185.368,0.85682167
8194.973,0.85722723
8204.601,0.85765083
8214.252,0.85806598
8223.925,0.85845306
8233.621,0.85880761
8243.34,0.85913848
8253.082,0.85946743
8262.847,0.85981366
8272.635,0.86017669
8282.446,0.86053796
8292.281,0.86087844
8302.139,0.86120055
8312.02,0.8615271
8321.925,0.86188599
8331.853,0.862298
8341.805,0.86276809
8351.781,0.86327489
8361.781,0.86377893
8371.804,0.86424514
8381.852,0.86467426
8391.924,0.86510336
8402.02,0.86556213
8412.14,0.86602743
8422.285,0.86642909
8432.454,0.8667097
8442.648,0.86687829
8452.866,0.86700428
8463.109,0.86715992
8473.377,0.8673713
8483.67,0.86762015
8493.988,0.86788272
8504.331,0.86815181
8514.699,0.86843085
8525.092,0.86871765
8535.511,0.86899776
8545.955,0.86925673
8556.425,0.8694941
8566.921,0.86972491
8577.442,0.86997212
8587.989,0.8702483
8598.562,0.87054893
8609.161,0.8708562
8619.786,0.87115586
8630.437,0.8714476
8641.115,0.8717381
8651.819,0.87202657
8662.55,0.87229974
8673.307,0.87254599
8684.091,0.87276428
8694.902,0.87296772
8705.739,0.8731777
8716.604,0.87341817
8727.496,0.873708
8738.415,0.87404245
8749.361,0.87438958
8760.335,0.87471
8771.336,0.87498927
8782.365,0.87524762
8793.422,0.87551457
8804.507,0.87579606
8815.619,0.8760698
8826.76,0.87631867
8837.928,0.87655791
8849.125,0.87682514
8860.351,0.87714802
8871.604,0.87751874
8882.887,0.8779044
8894.198,0.87827549
8905.538,0.87861954
8916.907,0.87893529
8928.305,0.87921218
8939.732,0.8794293
8951.188,0.87957768
8962.673,0.87967894
8974.189,0.87978238
8985.733,0.87992609
8997.308,0.88010377
9008.912,0.88026961
9020.546,0.88037617
9032.21,0.88041381
9043.905,0.88041021
9055.629,0.88039785
9067.384,0.88039009
9079.17,0.88037898
9090.986,0.88036165
9102.833,0.88034796
9114.711,0.88034637
9126.62,0.88034049
9138.56,0.88029464
9150.531,0.88018757
9162.534,0.88003576
9174.568,0.87988857
9186.634,0.87978661
9198.731,0.87973139
9210.86,0.87968872
9223.022,0.87963249
9235.215,0.87957794
9247.441,0.87956998
9259.699,0.87963521
9271.99,0.87974927
9284.313,0.87986431
9296.669,0.87995719
9309.058,0.88006022
9321.48,0.88022855
9333.935,0.88048735
9346.423,0.88081559
9358.945,0.88116898
9371.5,0.88150965
9384.089,0.88182371
9396.712,0.88211727
9409.369,0.88242009
9422.06,0.88277005
9434.785,0.8831873
9447.545,0.88365224
9460.339,0.88411999
9473.167,0.88457165
9486.031,0.88503838
9498.929,0.88557066
9511.863,0.88618396
9524.832,0.88683515
9537.836,0.88745424
9550.876,0.88799109
9563.951,0.88843736
9577.062,0.88881136
9590.209,0.88914568
9603.393,0.88947198
9616.612,0.88981539
9629.868,0.89018917
9643.16,0.89059175
9656.49,0.89101549
9669.856,0.89145371
9683.259,0.89189978
9696.699,0.8923371
9710.176,0.89273516
9723.691,0.8930666
9737.244,0.89333426
9750.834,0.89358169
9764.463,0.89387282
9778.129,0.89425038
9791.834,0.89470497
9805.577,0.89518545
9819.359,0.89562679
9833.18,0.8959813
9847.039,0.89623193
9860.938,0.89640596
9874.875,0.89657087
9888.853,0.8968027
9902.869,0.89713282
9916.926,0.89752615
9931.022,0.89790928
9945.159,0.89822946
9959.336,0.89848719
9973.553,0.8987185
9987.811,0.89895113
10002.109,0.89918957
10016.449,0.89942712
10030.83,0.89965848
10045.252,0.89988097
10059.715,0.90008898
10074.221,0.90028663
10088.768,0.90048841
10103.357,0.90071201
10117.988,0.90095971
10132.662,0.90121838
10147.378,0.90147812
10162.137,0.9017465
10176.939,0.90203983
10191.784,0.90235829
10206.672,0.90268743
10221.604,0.90301078
10236.58,0.90332504
10251.6,0.90363497
10266.663,0.90393373
10281.771,0.90419991
10296.924,0.90441558
10312.121,0.90458392
10327.363,0.90473291
10342.65,0.90489604
10357.982,0.90509039
10373.36,0.90530695
10388.784,0.9055172
10404.253,0.9056936
10419.769,0.90583075
10435.331,0.90594558
10450.939,0.90606741
10466.594,0.90620791
10482.296,0.90635262
10498.045,0.90646442
10513.842,0.90651347
10529.686,0.90650029
10545.577,0.90645512
10561.517,0.9064189
10577.505,0.90641452
10593.542,0.90642572
10609.627,0.90641106
10625.761,0.90633134
10641.944,0.90618063
10658.176,0.90599618
10674.458,0.90583418
10690.79,0.90572857
10707.172,0.90567297
10723.604,0.90563241
10740.086,0.9055748
10756.619,0.90547853
10773.203,0.90532955
10789.839,0.90512254
10806.525,0.90487356
10823.264,0.90461952
10840.054,0.90439359
10856.896,0.90419986
10873.791,0.90402554
10890.738,0.9038671
10907.738,0.90373583
10924.791,0.90362592
10941.898,0.90349304
10959.058,0.90328342
10976.272,0.90298942
10993.541,0.90266435
11010.863,0.90238254
11028.24,0.90218341
11045.672,0.90205177
11063.16,0.90195253
11080.702,0.90185637
11098.301,0.901751
11115.955,0.9016351
11133.665,0.90150749
11151.432,0.90137017
11169.256,0.90122909
11187.137,0.90108846
11205.075,0.90095172
11223.07,0.90082572
11241.124,0.9007189
11259.235,0.90063665
11277.405,0.90057635
11295.634,0.90052462
11313.921,0.90046751
11332.268,0.9003987
11350.675,0.90031737
11369.141,0.90022471
11387.667,0.90012446
11406.254,0.90003049
11424.901,0.89995755
11443.61,0.89991614
11462.38,0.89989588
11481.211,0.89986958
11500.105,0.89981361
11519.06,0.89972026
11538.079,0.89960054
11557.16,0.89946837
11576.304,0.89933512
11595.511,0.89920294
11614.783,0.89907277
11634.118,0.89895305
11653.518,0.89886201
11672.983,0.89882056
11692.513,0.89883365
11712.108,0.89887662
11731.769,0.89890897
11751.496,0.89890569
11771.29,0.89887401
11791.15,0.89884103
11811.077,0.89882299
11831.072,0.89881774
11851.134,0.89882271
11871.265,0.89885674
11891.464,0.89894335
11911.731,0.89908506
11932.068,0.89924612
11952.475,0.8993745
11972.951,0.89942795
11993.497,0.89939481
12014.114,0.89929392
12034.802,0.89915484
12055.562,0.89899071
12076.393,0.89878335
12097.296,0.89851317
12118.271,0.89821172
12139.32,0.89796228
12160.441,0.89782504
12181.636,0.89775605
12202.905,0.89763347
12224.249,0.89738052
12245.667,0.89705115
12267.16,0.89677029
12288.729,0.89660038
12310.373,0.89648766
12332.094,0.89634517
12353.892,0.89615565
12375.767,0.89597106
12397.719,0.89583061
12419.75,0.89571095
12441.859,0.89558094
12464.046,0.8954478
12486.313,0.89534801
12508.659,0.89529234
12531.086,0.8952545
12553.593,0.89521065
12576.18,0.89516097
12598.85,0.89510314
12621.601,0.89501039
12644.434,0.89486635
12667.35,0.89469621
12690.349,0.89455208
12713.432,0.89445106
12736.599,0.89434652
12759.85,0.89418156
12783.187,0.89394782
12806.608,0.89369689
12830.116,0.89348241
12853.71,0.89331595
12877.391,0.89317142
12901.159,0.89301468
12925.016,0.89282275
12948.96,0.89257929
12972.993,0.89227202
12997.116,0.89189664
13021.329,0.8914671
13045.631,0.89101321
13070.025,0.8905692
13094.51,0.89016441
13119.087,0.88981863
13143.756,0.88953525
13168.518,0.88929571
13193.373,0.88905126
13218.322,0.88874564
13243.366,0.88835208
13268.505,0.88789941
13293.74,0.88745108
13319.07,0.88704789
13344.497,0.88667998
13370.021,0.88631016
13395.644,0.88591777
13421.364,0.8855024
13447.183,0.88504904
13473.102,0.88451237
13499.121,0.8838668
13525.24,0.8831663
13551.461,0.88252709
13577.783,0.88201847
13604.208,0.88156377
13630.736,0.88097894
13657.367,0.8801349
13684.103,0.87908725
13710.943,0.87803249
13737.889,0.87712133
13764.941,0.87632142
13792.099,0.87546894
13819.365,0.87443914
13846.739,0.87325978
13874.221,0.87205202
13901.813,0.87088086
13929.515,0.8696767
13957.327,0.86830828
13985.25,0.86671679
14013.285,0.86496893
14041.433,0.86318176
14069.694,0.86140409
14098.068,0.85959606
14126.558,0.85770266
14155.163,0.85572034
14183.883,0.85365678
14212.721,0.85146787
14241.676,0.84906388
14270.749,0.84638785
14299.94,0.84346132
14329.252,0.8403384
14358.684,0.83703936
14388.237,0.8335522
14417.911,0.8298814
14447.709,0.82605887
14477.629,0.82209002
14507.674,0.81791027
14537.844,0.8134175
14568.139,0.80853765
14598.561,0.80325174
14629.109,0.79754867
14659.786,0.7913885
14690.592,0.78477122
14721.528,0.77788274
14752.594,0.7710367
14783.791,0.76421293
14815.121,0.75652477
14846.583,0.74645365
14878.179,0.73311353
14909.91,0.71767339
14941.777,0.70335647
14973.78,0.69295987
15005.92,0.68589603
15038.198,0.67861081
15070.616,0.66791012
15103.173,0.65320159
15135.871,0.63597104
15168.712,0.61768371
15201.695,0.59843358
15234.821,0.57758275
15268.092,0.55507806
15301.509,0.53168075
15335.072,0.50820282
15368.783,0.48501223
15402.642,0.46220996
15436.651,0.4398126
15470.81,0.41763904
15505.12,0.39536797
15539.583,0.372928
15574.199,0.35072069
15608.97,0.32932591
15643.896,0.30910385
15678.979,0.29021914
15714.22,0.27287998
15749.619,0.25725703
15785.178,0.24321908
15820.897,0.23036315
15856.779,0.21829468
15892.824,0.20685527
15929.033,0.19610846
15965.407,0.18612929
