Database of Origin,University of Winnipeg Spectrophotometer Facility
Sample Description,"HOSERLab master pyroxenes, FTIR data"
Date Added,2016-12-14 03:34:49.639978

Data ID,FTIR_PYX_05         
Sample ID,PYX032
Mineral Name,Orthopyroxene
Grain Size,<45 um
Viewing Geometry,"i=30, e=0"
Material Class,Inosilicate

Wavelength
2000.56,0.28462833
2001.142,0.28442772
2001.725,0.28423815
2002.307,0.28413772
2002.891,0.28410782
2003.474,0.28416114
2004.058,0.2843152
2004.643,0.28446728
2005.227,0.28450113
2005.812,0.28447106
2006.397,0.28449929
2006.983,0.28459201
2007.569,0.28469811
2008.155,0.28481529
2008.742,0.28490769
2009.329,0.28488629
2009.916,0.2847627
2010.504,0.28467311
2011.092,0.28469881
2011.68,0.28480327
2012.269,0.28493382
2012.858,0.28505659
2013.447,0.28512948
2014.037,0.28515311
2014.627,0.28518118
2015.217,0.28521862
2015.808,0.28520172
2016.399,0.28512808
2016.99,0.28509193
2017.582,0.28516459
2018.174,0.28532071
2018.766,0.28549437
2019.359,0.28562415
2019.952,0.28566547
2020.546,0.28561071
2021.139,0.28549624
2021.733,0.28537433
2022.328,0.28530853
2022.923,0.28534517
2023.518,0.28545299
2024.113,0.2855346
2024.709,0.28553813
2025.305,0.28549851
2025.902,0.28547845
2026.499,0.28551497
2027.096,0.28560538
2027.693,0.28568916
2028.291,0.28570756
2028.89,0.28569943
2029.488,0.2857512
2030.087,0.28584779
2030.686,0.28591452
2031.286,0.2859749
2031.886,0.28612806
2032.486,0.28640027
2033.087,0.28674302
2033.688,0.28710528
2034.289,0.28740301
2034.891,0.2875292
2035.493,0.28748745
2036.096,0.28740245
2036.698,0.28737016
2037.302,0.28742151
2037.905,0.28759883
2038.509,0.28789115
2039.113,0.28815308
2039.718,0.28824658
2040.322,0.28820042
2040.928,0.28810121
2041.533,0.28796273
2042.139,0.28781072
2042.746,0.28774754
2043.352,0.28783317
2043.959,0.28802265
2044.567,0.28824105
2045.174,0.28843011
2045.782,0.28854453
2046.391,0.28860545
2047.0,0.28868802
2047.609,0.28879668
2048.218,0.2888384
2048.828,0.28876337
2049.438,0.28862884
2050.049,0.28852882
2050.66,0.28854986
2051.271,0.28874692
2051.883,0.28905557
2052.495,0.28931173
2053.107,0.28943151
2053.72,0.28948294
2054.333,0.28954816
2054.947,0.28964627
2055.56,0.28977924
2056.175,0.28991431
2056.789,0.28996654
2057.404,0.28992828
2058.019,0.28992966
2058.635,0.29006716
2059.251,0.2902899
2059.867,0.29052067
2060.484,0.2907147
2061.101,0.29078541
2061.718,0.29067862
2062.336,0.29053349
2062.954,0.29054936
2063.573,0.29072698
2064.192,0.2909228
2064.811,0.29108249
2065.431,0.29123027
2066.051,0.2913577
2066.671,0.29147798
2067.292,0.29165006
2067.913,0.29182607
2068.534,0.29186715
2069.156,0.29179153
2069.778,0.29180747
2070.401,0.29202843
2071.024,0.29236299
2071.647,0.29270246
2072.271,0.2930145
2072.895,0.29325554
2073.519,0.29338534
2074.144,0.29344355
2074.769,0.29347151
2075.395,0.29343369
2076.02,0.29333691
2076.647,0.29330221
2077.273,0.29340892
2077.9,0.29359907
2078.528,0.29381452
2079.155,0.29407344
2079.784,0.29437029
2080.412,0.29463954
2081.041,0.29485651
2081.67,0.29504466
2082.3,0.29519656
2082.93,0.29530012
2083.56,0.29540174
2084.191,0.2955309
2084.822,0.29565067
2085.454,0.29574754
2086.085,0.29588084
2086.718,0.29607561
2087.35,0.29628868
2087.983,0.29650316
2088.617,0.29674284
2089.251,0.29698453
2089.885,0.29717624
2090.519,0.29730307
2091.154,0.29735014
2091.789,0.29728131
2092.425,0.2971492
2093.061,0.29709722
2093.697,0.29717791
2094.334,0.29730265
2094.971,0.29740761
2095.609,0.29750274
2096.247,0.29756792
2096.885,0.29759054
2097.524,0.29768485
2098.163,0.29797098
2098.803,0.29837881
2099.443,0.29873858
2100.083,0.29897076
2100.723,0.29905262
2101.364,0.29895372
2102.006,0.29874334
2102.648,0.29859941
2103.29,0.29859697
2103.932,0.298652
2104.575,0.29870349
2105.219,0.29877554
2105.862,0.29885758
2106.506,0.2989179
2107.151,0.29899734
2107.796,0.29912525
2108.441,0.29920375
2109.087,0.29913681
2109.733,0.29898983
2110.379,0.2988948
2111.026,0.29887845
2111.673,0.29889769
2112.321,0.29894047
2112.969,0.2990157
2113.617,0.29912685
2114.266,0.2992988
2114.915,0.29955612
2115.565,0.29986308
2116.215,0.30014022
2116.865,0.30035198
2117.516,0.30053512
2118.167,0.30073465
2118.819,0.30093854
2119.471,0.301103
2120.123,0.30123675
2120.776,0.30140382
2121.429,0.30163012
2122.082,0.30187724
2122.736,0.30212762
2123.391,0.30239167
2124.045,0.3026191
2124.7,0.30273854
2125.356,0.30279287
2126.012,0.30288383
2126.668,0.30301359
2127.325,0.3031434
2127.982,0.30333148
2128.64,0.30363509
2129.297,0.30398342
2129.956,0.3043053
2130.614,0.30463184
2131.274,0.30494271
2131.933,0.30511292
2132.593,0.3051304
2133.253,0.30513466
2133.914,0.30517751
2134.575,0.30519495
2135.237,0.30521861
2135.899,0.30534041
2136.561,0.30551429
2137.224,0.3056488
2137.887,0.30581053
2138.55,0.30609329
2139.214,0.30642796
2139.879,0.30672169
2140.544,0.30701077
2141.209,0.30731523
2141.874,0.30754919
2142.54,0.30768383
2143.207,0.30780344
2143.873,0.30793729
2144.541,0.30804501
2145.208,0.30814878
2145.876,0.30829241
2146.545,0.30843415
2147.214,0.30855805
2147.883,0.30876978
2148.553,0.30912128
2149.223,0.30947093
2149.893,0.3096502
2150.564,0.30964602
2151.235,0.30956091
2151.907,0.30953083
2152.579,0.30968964
2153.252,0.31005503
2153.925,0.3104551
2154.598,0.31069893
2155.272,0.3107904
2155.946,0.31087628
2156.621,0.31106094
2157.296,0.31135366
2157.972,0.31170602
2158.647,0.31203275
2159.324,0.31228125
2160.001,0.31250537
2160.678,0.31279802
2161.355,0.31317156
2162.033,0.31357795
2162.712,0.31399362
2163.39,0.31440198
2164.07,0.31475929
2164.749,0.31506108
2165.429,0.31536368
2166.11,0.315675
2166.791,0.31591789
2167.472,0.31606072
2168.154,0.31617912
2168.836,0.31634576
2169.519,0.31656368
2170.202,0.3168348
2170.885,0.31716388
2171.569,0.31747977
2172.254,0.31767356
2172.938,0.31773745
2173.624,0.31776543
2174.309,0.31783468
2174.995,0.31799134
2175.682,0.31829046
2176.368,0.31873852
2177.056,0.31924431
2177.743,0.3197109
2178.432,0.32009971
2179.12,0.32035527
2179.809,0.32040781
2180.499,0.32032025
2181.189,0.32028458
2181.879,0.32041968
2182.57,0.3206951
2183.261,0.32104973
2183.952,0.32143857
2184.644,0.3217752
2185.337,0.32200056
2186.03,0.32217611
2186.723,0.32238675
2187.417,0.32261655
2188.111,0.32282911
2188.806,0.3230639
2189.501,0.32335676
2190.196,0.32366772
2190.892,0.32395913
2191.589,0.32424084
2192.285,0.32450032
2192.983,0.32470261
2193.68,0.3248654
2194.379,0.32502997
2195.077,0.32518787
2195.776,0.3253297
2196.476,0.32550697
2197.175,0.32576476
2197.876,0.32607123
2198.577,0.32636229
2199.278,0.32660575
2199.979,0.32680146
2200.682,0.32698548
2201.384,0.32721295
2202.087,0.32748974
2202.79,0.32774608
2203.494,0.32791387
2204.199,0.32799676
2204.903,0.32805988
2205.609,0.3281827
2206.314,0.32842362
2207.02,0.32878264
2207.727,0.32919598
2208.434,0.32957654
2209.141,0.32985122
2209.849,0.32998672
2210.557,0.33003555
2211.266,0.33012701
2211.975,0.3303586
2212.685,0.33071602
2213.395,0.33111216
2214.106,0.3314609
2214.817,0.33171975
2215.528,0.33191563
2216.24,0.3321162
2216.952,0.33234582
2217.665,0.33257379
2218.379,0.33279331
2219.092,0.3330262
2219.806,0.33325909
2220.521,0.33346637
2221.236,0.33366099
2221.952,0.3338376
2222.668,0.33394937
2223.384,0.33403035
2224.101,0.33421102
2224.818,0.33454678
2225.536,0.33496151
2226.254,0.33537462
2226.973,0.33572832
2227.692,0.33594179
2228.412,0.33600917
2229.132,0.33605157
2229.853,0.33612873
2230.574,0.33616062
2231.295,0.33614425
2232.017,0.33621284
2232.74,0.33639393
2233.462,0.33658885
2234.186,0.33680562
2234.91,0.33711336
2235.634,0.33741392
2236.359,0.3375778
2237.084,0.337696
2237.809,0.33790225
2238.536,0.33812944
2239.262,0.3382957
2239.989,0.33847078
2240.717,0.33866988
2241.445,0.33879195
2242.173,0.33888486
2242.902,0.33911106
2243.631,0.33942051
2244.361,0.33962848
2245.092,0.33976531
2245.822,0.3399872
2246.554,0.34027065
2247.285,0.34051331
2248.017,0.3407503
2248.75,0.34099857
2249.483,0.34115356
2250.217,0.34122705
2250.951,0.3413805
2251.686,0.34161219
2252.421,0.34175521
2253.156,0.34182441
2253.892,0.34201479
2254.628,0.34236446
2255.365,0.34273533
2256.103,0.34304829
2256.841,0.34329014
2257.579,0.34343327
2258.318,0.34354882
2259.057,0.34380982
2259.797,0.34423854
2260.537,0.34464839
2261.278,0.34491208
2262.019,0.34508718
2262.761,0.34525148
2263.503,0.34541898
2264.246,0.34560174
2264.989,0.34579296
2265.732,0.3459261
2266.477,0.34596285
2267.221,0.34595489
2267.966,0.34596306
2268.712,0.34601764
2269.458,0.34616021
2270.204,0.34641401
2270.951,0.34672542
2271.699,0.34703077
2272.447,0.3473354
2273.195,0.34765082
2273.944,0.34792272
2274.694,0.3480978
2275.444,0.34819736
2276.194,0.34829081
2276.945,0.34844581
2277.696,0.34869846
2278.448,0.34902331
2279.201,0.34934094
2279.954,0.34959676
2280.707,0.34980409
2281.461,0.34998589
2282.215,0.35013653
2282.97,0.35026419
2283.725,0.35039704
2284.481,0.3505211
2285.237,0.35058455
2285.994,0.35060872
2286.752,0.35071683
2287.509,0.35100385
2288.268,0.35142174
2289.026,0.35183375
2289.786,0.35214267
2290.545,0.35234552
2291.306,0.35250338
2292.067,0.35270106
2292.828,0.35298417
2293.59,0.35330447
2294.352,0.35356822
2295.115,0.3537544
2295.878,0.35391442
2296.642,0.35406273
2297.406,0.35417046
2298.171,0.35426326
2298.936,0.35441198
2299.702,0.35462046
2300.468,0.35482934
2301.235,0.35501468
2302.002,0.35519125
2302.77,0.35535184
2303.539,0.35550041
2304.307,0.35569873
2305.077,0.3559882
2305.847,0.35632145
2306.617,0.35663602
2307.388,0.35692725
2308.159,0.35718446
2308.931,0.35734973
2309.703,0.35740046
2310.476,0.35739758
2311.25,0.35740657
2312.024,0.3574379
2312.798,0.35749921
2313.573,0.35762595
2314.348,0.35782926
2315.124,0.35805397
2315.901,0.35822902
2316.678,0.35833686
2317.455,0.35840696
2318.234,0.35847056
2319.012,0.3585652
2319.791,0.35873798
2320.571,0.35898903
2321.351,0.35923872
2322.131,0.35942308
2322.913,0.35958651
2323.694,0.35980434
2324.476,0.36007652
2325.259,0.36036559
2326.042,0.36066278
2326.826,0.36093948
2327.61,0.3611441
2328.395,0.36131454
2329.18,0.36156956
2329.966,0.36192817
2330.753,0.36226745
2331.54,0.3625013
2332.327,0.36265472
2333.115,0.3627666
2333.903,0.36285799
2334.692,0.36297385
2335.482,0.36313477
2336.272,0.36329823
2337.062,0.3634597
2337.854,0.36369912
2338.645,0.36405877
2339.437,0.36447071
2340.23,0.36484701
2341.023,0.36514287
2341.817,0.36534126
2342.611,0.36547115
2343.406,0.36560851
2344.201,0.36578461
2344.997,0.36596188
2345.794,0.36612068
2346.591,0.3662824
2347.388,0.3664627
2348.186,0.36670168
2348.985,0.36706514
2349.784,0.36751209
2350.583,0.36788124
2351.384,0.36809093
2352.184,0.36820871
2352.986,0.36829516
2353.787,0.36837615
2354.59,0.36853977
2355.393,0.36883311
2356.196,0.36912942
2357.0,0.36931568
2357.804,0.36947934
2358.609,0.36970792
2359.415,0.36991534
2360.221,0.37005322
2361.028,0.37022763
2361.835,0.37045362
2362.643,0.3705942
2363.451,0.37064294
2364.26,0.37074557
2365.069,0.37091465
2365.879,0.37103921
2366.69,0.37114638
2367.501,0.37133055
2368.312,0.37150869
2369.125,0.3715338
2369.937,0.37143744
2370.751,0.37133321
2371.564,0.37126159
2372.379,0.37128088
2373.194,0.37148759
2374.009,0.37181817
2374.825,0.37206102
2375.642,0.37214996
2376.459,0.37222289
2377.276,0.37237183
2378.095,0.37254607
2378.913,0.37269107
2379.733,0.37279891
2380.553,0.37285782
2381.373,0.37289247
2382.194,0.37299914
2383.016,0.37324513
2383.838,0.37358789
2384.661,0.37393688
2385.484,0.37423716
2386.308,0.37447957
2387.132,0.37468567
2387.957,0.37487629
2388.783,0.37503746
2389.609,0.37514548
2390.435,0.37522022
2391.263,0.37530269
2392.09,0.37540101
2392.919,0.37551644
2393.748,0.3756874
2394.577,0.37594841
2395.407,0.37626799
2396.238,0.37656313
2397.069,0.37674817
2397.901,0.37676286
2398.733,0.37664064
2399.566,0.37654647
2400.399,0.37665194
2401.233,0.37694582
2402.068,0.37726225
2402.903,0.37748491
2403.739,0.37762823
2404.575,0.37773039
2405.412,0.37779857
2406.25,0.37787844
2407.088,0.37804097
2407.926,0.37826324
2408.766,0.37843442
2409.606,0.37850674
2410.446,0.37853809
2411.287,0.37858095
2412.128,0.37865175
2412.971,0.37878816
2413.813,0.3790063
2414.657,0.37922189
2415.5,0.37935793
2416.345,0.37948594
2417.19,0.3797222
2418.036,0.38004227
2418.882,0.38033826
2419.729,0.38057339
2420.576,0.38073921
2421.424,0.38078243
2422.272,0.38070889
2423.122,0.38065246
2423.971,0.38071611
2424.822,0.38085448
2425.673,0.38099776
2426.524,0.381165
2427.376,0.3813713
2428.229,0.3815531
2429.082,0.38165922
2429.936,0.38171508
2430.791,0.38175037
2431.646,0.38175738
2432.501,0.38175931
2433.358,0.38182679
2434.214,0.3819844
2435.072,0.38217195
2435.93,0.38233335
2436.789,0.38247317
2437.648,0.38259002
2438.508,0.38263469
2439.368,0.38261128
2440.229,0.38262624
2441.091,0.38276258
2441.953,0.38298544
2442.816,0.38324289
2443.679,0.38353075
2444.543,0.38379495
2445.408,0.38394091
2446.273,0.38402234
2447.139,0.38422747
2448.006,0.38459856
2448.873,0.38495807
2449.74,0.38513848
2450.609,0.38510895
2451.478,0.38491194
2452.347,0.38467804
2453.217,0.38461208
2454.088,0.38476271
2454.959,0.38493777
2455.831,0.38500259
2456.704,0.38504425
2457.577,0.38513202
2458.451,0.38519661
2459.325,0.38524364
2460.2,0.38537483
2461.076,0.38557231
2461.952,0.38574895
2462.829,0.3859415
2463.707,0.38618111
2464.585,0.38633722
2465.464,0.38635106
2466.343,0.38637648
2467.223,0.38650178
2468.104,0.38664032
2468.985,0.38681188
2469.867,0.38713329
2470.749,0.38749957
2471.632,0.38768279
2472.516,0.38770138
2473.4,0.38769073
2474.285,0.38761248
2475.171,0.38746205
2476.057,0.38745861
2476.944,0.38767367
2477.832,0.38784166
2478.72,0.38781374
2479.608,0.38777903
2480.498,0.38785876
2481.388,0.38795089
2482.278,0.38806536
2483.17,0.38831649
2484.062,0.38858206
2484.954,0.3886512
2485.847,0.38861242
2486.741,0.38867757
2487.636,0.38881678
2488.531,0.38892102
2489.427,0.38905052
2490.323,0.3892248
2491.22,0.3892749
2492.118,0.38915112
2493.016,0.3890532
2493.915,0.38910862
2494.814,0.38923012
2495.715,0.38934774
2496.615,0.38947626
2497.517,0.38957105
2498.419,0.38959456
2499.322,0.38965236
2500.225,0.38983562
2501.129,0.39005332
2502.034,0.39019064
2502.939,0.39028018
2503.845,0.39037542
2504.752,0.39046159
2505.659,0.39056983
2506.567,0.39077317
2507.476,0.39102512
2508.385,0.39122364
2509.295,0.39140942
2510.206,0.39169036
2511.117,0.39202901
2512.029,0.39231981
2512.942,0.39256485
2513.855,0.39276903
2514.769,0.39284236
2515.683,0.39281392
2516.598,0.39287691
2517.514,0.39304427
2518.431,0.39309709
2519.348,0.39303795
2520.266,0.3931428
2521.184,0.39342882
2522.103,0.39359498
2523.023,0.39359342
2523.944,0.3936589
2524.865,0.39372752
2525.787,0.39355312
2526.709,0.39336731
2527.632,0.39360706
2528.556,0.39412897
2529.48,0.39448084
2530.406,0.39469517
2531.331,0.39498423
2532.258,0.39509316
2533.185,0.39485566
2534.113,0.39477967
2535.041,0.39514914
2535.971,0.39537853
2536.9,0.39510498
2537.831,0.39492972
2538.762,0.39524213
2539.694,0.3955408
2540.627,0.39552222
2541.56,0.39564905
2542.494,0.39603936
2543.428,0.39609193
2544.364,0.39579315
2545.3,0.39584908
2546.236,0.39622666
2547.174,0.3961667
2548.112,0.39579468
2549.05,0.39603544
2549.99,0.39682664
2550.93,0.39714836
2551.87,0.39684873
2552.812,0.39667489
2553.754,0.39657121
2554.697,0.39592724
2555.64,0.39520257
2556.585,0.39533225
2557.529,0.39609651
2558.475,0.39667231
2559.421,0.39735077
2560.368,0.39881078
2561.316,0.40011981
2562.264,0.39978003
2563.213,0.39853547
2564.163,0.39790567
2565.113,0.39760611
2566.065,0.39703347
2567.016,0.39703304
2567.969,0.39806943
2568.922,0.39878109
2569.876,0.3983136
2570.831,0.39817185
2571.786,0.39921373
2572.742,0.39990364
2573.699,0.39937262
2574.656,0.39913997
2575.615,0.39968653
2576.573,0.3994068
2577.533,0.39825661
2578.493,0.39818986
2579.454,0.39932864
2580.416,0.39992244
2581.378,0.39992264
2582.342,0.40072482
2583.305,0.40158683
2584.27,0.40076674
2585.235,0.39961327
2586.201,0.40003754
2587.168,0.4007306
2588.135,0.39977686
2589.103,0.39858283
2590.072,0.39896485
2591.042,0.40027574
2592.012,0.40179872
2592.983,0.40457033
2593.955,0.40793764
2594.927,0.40779104
2595.9,0.40371028
2596.874,0.40042186
2597.849,0.399378
2598.824,0.39892567
2599.8,0.39864765
2600.777,0.39944106
2601.755,0.40092575
2602.733,0.4017373
2603.712,0.4020974
2604.692,0.40289352
2605.672,0.40324745
2606.653,0.40221013
2607.635,0.40092697
2608.618,0.40038207
2609.601,0.39990009
2610.585,0.39906433
2611.57,0.39871508
2612.556,0.39934067
2613.542,0.40037727
2614.529,0.40138553
2615.517,0.40237717
2616.505,0.40304933
2617.495,0.4030555
2618.485,0.40272004
2619.475,0.40233124
2620.467,0.40155148
2621.459,0.40037674
2622.452,0.39950643
2623.446,0.39942827
2624.44,0.40000472
2625.435,0.40088641
2626.431,0.40177922
2627.428,0.40255184
2628.426,0.40332018
2629.424,0.40406931
2630.423,0.40429175
2631.423,0.40360152
2632.423,0.40248917
2633.424,0.40160789
2634.426,0.40098706
2635.429,0.40042928
2636.432,0.40005666
2637.437,0.40001334
2638.442,0.40015081
2639.447,0.40026983
2640.454,0.40035974
2641.461,0.40048021
2642.469,0.400671
2643.478,0.40099334
2644.488,0.40139122
2645.498,0.40159143
2646.509,0.40136498
2647.521,0.40087269
2648.534,0.40057889
2649.547,0.40083373
2650.561,0.40155591
2651.576,0.40229079
2652.592,0.40269501
2653.609,0.40278605
2654.626,0.40259309
2655.644,0.40211455
2656.663,0.40175428
2657.682,0.40197813
2658.703,0.40249782
2659.724,0.4026063
2660.746,0.40245247
2661.768,0.40291337
2662.792,0.4042527
2663.816,0.4060492
2664.841,0.40793787
2665.867,0.40936509
2666.894,0.40961402
2667.921,0.40914
2668.949,0.40916324
2669.978,0.40929051
2671.008,0.40776268
2672.038,0.40489593
2673.07,0.40310828
2674.102,0.40336286
2675.135,0.40467993
2676.168,0.40588836
2677.203,0.40626678
2678.238,0.40503962
2679.274,0.40230261
2680.311,0.39972958
2681.349,0.39863234
2682.387,0.39860858
2683.426,0.3986897
2684.467,0.39875228
2685.507,0.39891212
2686.549,0.39861658
2687.591,0.39757668
2688.635,0.3965191
2689.679,0.39609563
2690.724,0.39622188
2691.769,0.39677645
2692.816,0.39773527
2693.863,0.39823206
2694.911,0.39682145
2695.96,0.3935211
2697.01,0.3899092
2698.06,0.38704479
2699.112,0.38497701
2700.164,0.38347947
2701.217,0.38222954
2702.27,0.38076556
2703.325,0.37893579
2704.38,0.37709546
2705.437,0.37570312
2706.494,0.37513589
2707.552,0.37569413
2708.61,0.37708764
2709.67,0.37781199
2710.73,0.37596815
2711.791,0.37135242
2712.853,0.36559283
2713.916,0.36000019
2714.98,0.35493917
2716.044,0.350665
2717.109,0.34775399
2718.175,0.34682571
2719.242,0.34793461
2720.31,0.34992535
2721.379,0.35092816
2722.448,0.3501121
2723.518,0.34781745
2724.589,0.34374652
2725.661,0.33670719
2726.734,0.32679703
2727.808,0.31625333
2728.882,0.30741099
2729.958,0.30129306
2731.034,0.29800629
2732.111,0.29719539
2733.188,0.29761365
2734.267,0.29719209
2735.347,0.29486192
2736.427,0.29185813
2737.508,0.28971507
2738.59,0.28796327
2739.673,0.28461543
2740.757,0.27861869
2741.841,0.27123586
2742.927,0.26461119
2744.013,0.26014042
2745.1,0.25817833
2746.188,0.25780733
2747.277,0.25741101
2748.367,0.25626331
2749.457,0.25488659
2750.549,0.25365323
2751.641,0.25235559
2752.734,0.25110355
2753.828,0.25011351
2754.923,0.2485319
2756.019,0.2452744
2757.115,0.24141806
2758.213,0.23883282
2759.311,0.237563
2760.41,0.23677903
2761.51,0.23628583
2762.611,0.23606105
2763.713,0.23547722
2764.816,0.23419687
2765.919,0.23294739
2767.024,0.23223021
2768.129,0.23162239
2769.235,0.2307929
2770.342,0.23007256
2771.45,0.22952041
2772.559,0.22869549
2773.669,0.22768659
2774.779,0.2270914
2775.891,0.22693628
2777.003,0.22668568
2778.116,0.22617908
2779.23,0.22570891
2780.345,0.22524715
2781.461,0.2245093
2782.578,0.22367953
2783.696,0.22320631
2784.814,0.22305471
2785.934,0.22284177
2787.054,0.22247481
2788.175,0.22211281
2789.297,0.22169891
2790.42,0.22110039
2791.544,0.22047398
2792.669,0.22002158
2793.795,0.21966521
2794.922,0.21922353
2796.049,0.21874575
2797.178,0.2183969
2798.307,0.2181617
2799.437,0.21791793
2800.568,0.21766409
2801.7,0.21742121
2802.833,0.21706178
2803.967,0.21652893
2805.102,0.21609916
2806.238,0.2160045
2807.374,0.21606482
2808.512,0.21601971
2809.65,0.21590446
2810.789,0.21587165
2811.93,0.2158768
2813.071,0.21578891
2814.213,0.21564512
2815.356,0.21557035
2816.5,0.2155911
2817.645,0.21566458
2818.791,0.2157377
2819.937,0.21569373
2821.085,0.21546326
2822.233,0.21522063
2823.383,0.21523764
2824.533,0.21554394
2825.685,0.21591659
2826.837,0.21611359
2827.99,0.21604322
2829.144,0.21581605
2830.299,0.21567443
2831.455,0.21576453
2832.612,0.2159884
2833.77,0.21614227
2834.929,0.21612945
2836.089,0.21596075
2837.25,0.2156987
2838.411,0.21547879
2839.574,0.21540857
2840.737,0.21540848
2841.902,0.21536319
2843.067,0.21533969
2844.234,0.21541376
2845.401,0.21543431
2846.569,0.21525092
2847.739,0.21500199
2848.909,0.21487828
2850.08,0.21482802
2851.252,0.21476058
2852.425,0.21474717
2853.599,0.21478343
2854.774,0.21469691
2855.95,0.21449077
2857.127,0.21441502
2858.305,0.21454292
2859.484,0.21467417
2860.664,0.21470817
2861.844,0.21472385
2863.026,0.21468568
2864.209,0.21446471
2865.392,0.2141249
2866.577,0.213837
2867.763,0.21357516
2868.949,0.21321408
2870.137,0.21282445
2871.325,0.21257123
2872.515,0.21243331
2873.705,0.21228233
2874.897,0.21213176
2876.089,0.21205777
2877.283,0.2119955
2878.477,0.2118237
2879.673,0.21155927
2880.869,0.21128668
2882.066,0.21099593
2883.265,0.21065626
2884.464,0.21037578
2885.664,0.21030758
2886.866,0.2104483
2888.068,0.21066018
2889.271,0.21082992
2890.476,0.21085698
2891.681,0.21059457
2892.887,0.21001832
2894.095,0.20938369
2895.303,0.20898147
2896.512,0.20880463
2897.723,0.20865664
2898.934,0.2084799
2900.146,0.20834411
2901.36,0.20823187
2902.574,0.20809286
2903.789,0.20801082
2905.006,0.20806762
2906.223,0.20816742
2907.441,0.20818617
2908.661,0.20814782
2909.881,0.20808149
2911.103,0.20790309
2912.325,0.2076353
2913.549,0.20754509
2914.773,0.20784301
2915.999,0.20839019
2917.225,0.20884621
2918.453,0.20897428
2919.681,0.208712
2920.911,0.2081463
2922.142,0.20752176
2923.373,0.20709033
2924.606,0.20685906
2925.84,0.20663923
2927.075,0.20636066
2928.31,0.20614455
2929.547,0.20603776
2930.785,0.2059231
2932.024,0.20575671
2933.264,0.20568987
2934.505,0.20585452
2935.747,0.20618677
2936.99,0.20652178
2938.234,0.20672491
2939.479,0.20669385
2940.726,0.20641734
2941.973,0.20610183
2943.221,0.20608931
2944.471,0.20656804
2945.721,0.20740735
2946.973,0.20824824
2948.225,0.20868668
2949.479,0.20850997
2950.733,0.20793188
2951.989,0.20750422
2953.246,0.20760583
2954.504,0.20806235
2955.763,0.20838477
2957.023,0.20829821
2958.284,0.20792084
2959.546,0.20754278
2960.809,0.20737538
2962.073,0.20745621
2963.339,0.20769159
2964.605,0.20798209
2965.873,0.20829774
2967.141,0.20861129
2968.411,0.20885127
2969.681,0.2090247
2970.953,0.20930794
2972.226,0.20989203
2973.5,0.21074581
2974.775,0.2115942
2976.051,0.21211346
2977.328,0.21214468
2978.607,0.2118018
2979.886,0.2114007
2981.167,0.21122249
2982.448,0.21132624
2983.731,0.21158646
2985.015,0.2118622
2986.3,0.2121081
2987.586,0.21238284
2988.873,0.21278386
2990.161,0.2133073
2991.45,0.21377178
2992.74,0.21397553
2994.032,0.21394594
2995.324,0.21393806
2996.618,0.21417664
2997.913,0.2146803
2999.209,0.21533225
3000.506,0.21600202
3001.804,0.2165633
3003.103,0.21690531
3004.404,0.21701983
3005.705,0.21702654
3007.008,0.21705976
3008.312,0.21717425
3009.616,0.21739059
3010.922,0.21773964
3012.23,0.21820468
3013.538,0.21868828
3014.847,0.21909128
3016.158,0.21936639
3017.469,0.21949038
3018.782,0.21949009
3020.096,0.21950234
3021.411,0.21966812
3022.727,0.21996036
3024.044,0.22025592
3025.363,0.2205611
3026.683,0.22102327
3028.003,0.22174714
3029.325,0.22272086
3030.648,0.22382227
3031.972,0.22475118
3033.298,0.22511205
3034.624,0.22478073
3035.952,0.22410612
3037.281,0.22359229
3038.611,0.22349513
3039.942,0.22381252
3041.274,0.22444814
3042.607,0.22522044
3043.942,0.22587361
3045.278,0.2262391
3046.615,0.22631356
3047.953,0.2261722
3049.292,0.22593114
3050.632,0.22576342
3051.974,0.22579746
3053.317,0.22600418
3054.661,0.22628437
3056.006,0.22660772
3057.352,0.22697721
3058.7,0.22734775
3060.048,0.22769487
3061.398,0.22809407
3062.749,0.22863204
3064.101,0.22925505
3065.455,0.22975824
3066.809,0.22994152
3068.165,0.22979155
3069.522,0.22951468
3070.88,0.22936876
3072.239,0.22947191
3073.6,0.22978742
3074.962,0.23022332
3076.325,0.23068512
3077.689,0.23109558
3079.054,0.23142566
3080.421,0.23167798
3081.788,0.23184897
3083.157,0.23198774
3084.527,0.23223198
3085.899,0.23264944
3087.271,0.23309755
3088.645,0.23338448
3090.02,0.23350271
3091.396,0.23356618
3092.774,0.23361471
3094.153,0.23364743
3095.532,0.23376362
3096.914,0.23410287
3098.296,0.23468797
3099.679,0.23539909
3101.064,0.23602008
3102.45,0.23630171
3103.837,0.2361358
3105.226,0.23571059
3106.616,0.23535682
3108.007,0.23523106
3109.399,0.23528859
3110.792,0.23550192
3112.187,0.23589439
3113.583,0.23638597
3114.98,0.2368128
3116.378,0.23710592
3117.778,0.23731524
3119.179,0.23749071
3120.581,0.23765608
3121.985,0.23784999
3123.389,0.23808311
3124.795,0.23830673
3126.202,0.23849951
3127.611,0.23872198
3129.02,0.23902853
3130.431,0.23938837
3131.844,0.23973756
3133.257,0.24005201
3134.672,0.24034127
3136.088,0.24061697
3137.505,0.24088857
3138.924,0.24115653
3140.344,0.24141403
3141.765,0.24167728
3143.187,0.2419904
3144.611,0.24238038
3146.036,0.24282446
3147.462,0.24326638
3148.89,0.2436396
3150.319,0.24390219
3151.749,0.24407166
3153.18,0.24421141
3154.613,0.24436988
3156.047,0.24457354
3157.482,0.24485964
3158.919,0.24524636
3160.357,0.24568059
3161.796,0.24609235
3163.236,0.24647971
3164.678,0.24687437
3166.121,0.2472656
3167.566,0.2476399
3169.011,0.2480262
3170.458,0.24842323
3171.907,0.24876698
3173.356,0.24905672
3174.807,0.24943346
3176.26,0.25005782
3177.713,0.25095803
3179.168,0.25199967
3180.624,0.25290998
3182.082,0.25337956
3183.541,0.25330891
3185.001,0.25295792
3186.463,0.25271634
3187.926,0.25276246
3189.39,0.25307549
3190.856,0.25365439
3192.323,0.25449549
3193.791,0.25540334
3195.26,0.25605264
3196.731,0.25627679
3198.204,0.25619987
3199.677,0.25611062
3201.152,0.25627402
3202.629,0.25676276
3204.106,0.25738795
3205.585,0.25786863
3207.066,0.2581417
3208.548,0.25845141
3210.031,0.25909739
3211.515,0.26017037
3213.001,0.26152993
3214.488,0.26290155
3215.977,0.26394362
3217.467,0.26437022
3218.958,0.26415229
3220.451,0.26359036
3221.945,0.26312296
3223.441,0.26304407
3224.938,0.26334884
3226.436,0.26377151
3227.936,0.26399914
3229.437,0.26396148
3230.939,0.26391558
3232.443,0.2641624
3233.948,0.26469509
3235.455,0.26522772
3236.963,0.26553872
3238.472,0.26567807
3239.983,0.26586368
3241.495,0.26628683
3243.008,0.26697797
3244.523,0.26776594
3246.04,0.26841125
3247.558,0.26885445
3249.077,0.26926429
3250.598,0.26980775
3252.12,0.27049176
3253.643,0.27126339
3255.168,0.27206715
3256.694,0.27273948
3258.222,0.27302804
3259.751,0.27283021
3261.282,0.2723175
3262.814,0.27180591
3264.347,0.27159377
3265.882,0.27185776
3267.418,0.27253899
3268.956,0.27334317
3270.495,0.27395192
3272.036,0.27423214
3273.578,0.27423247
3275.122,0.27410843
3276.667,0.27408576
3278.213,0.27433961
3279.761,0.27483463
3281.31,0.27539587
3282.861,0.27593156
3284.413,0.27645997
3285.967,0.27695662
3287.522,0.27735455
3289.079,0.27768757
3290.637,0.27810186
3292.196,0.27872023
3293.757,0.27953698
3295.32,0.2803736
3296.884,0.28092131
3298.449,0.28097284
3300.016,0.28068782
3301.585,0.28049927
3303.155,0.28069237
3304.726,0.28116922
3306.299,0.28163119
3307.873,0.28186943
3309.449,0.28189614
3311.026,0.2819073
3312.605,0.28211363
3314.185,0.28253909
3315.767,0.2830148
3317.351,0.28339653
3318.936,0.28371144
3320.522,0.28407739
3322.11,0.28459331
3323.699,0.28532728
3325.29,0.28627593
3326.882,0.28727622
3328.476,0.28803932
3330.072,0.2883124
3331.669,0.28802219
3333.267,0.28732061
3334.867,0.28653812
3336.469,0.28599782
3338.072,0.28580889
3339.676,0.28587894
3341.282,0.28610878
3342.89,0.28645403
3344.499,0.28683966
3346.11,0.287189
3347.722,0.2875415
3349.336,0.28797209
3350.952,0.28839454
3352.569,0.28860367
3354.187,0.28851287
3355.807,0.28823046
3357.429,0.28796018
3359.052,0.2879222
3360.677,0.28826985
3362.303,0.28894035
3363.931,0.28965844
3365.56,0.29017588
3367.191,0.29044029
3368.824,0.29051131
3370.458,0.29046106
3372.093,0.29037873
3373.731,0.29031783
3375.37,0.29022439
3377.01,0.29005542
3378.652,0.2899268
3380.296,0.28999681
3381.941,0.29027345
3383.588,0.29066689
3385.236,0.29112163
3386.886,0.29156242
3388.538,0.29185811
3390.191,0.29199928
3391.846,0.2921898
3393.502,0.29261864
3395.16,0.2932375
3396.82,0.29384809
3398.481,0.29431499
3400.144,0.29464743
3401.809,0.29496327
3403.475,0.295382
3405.143,0.29584746
3406.812,0.29610056
3408.483,0.29594285
3410.156,0.29550497
3411.83,0.2951269
3413.506,0.29502356
3415.183,0.29517637
3416.862,0.29550842
3418.543,0.29601337
3420.226,0.29670131
3421.91,0.29749731
3423.596,0.29823783
3425.283,0.2987583
3426.972,0.2990141
3428.663,0.29912769
3430.355,0.29929481
3432.049,0.29963632
3433.745,0.30017578
3435.442,0.30092685
3437.141,0.30191113
3438.842,0.30305641
3440.545,0.30413655
3442.249,0.30486864
3443.954,0.30508149
3445.662,0.30481513
3447.371,0.30431577
3449.082,0.30391644
3450.794,0.30383204
3452.509,0.30401951
3454.224,0.30426761
3455.942,0.30441331
3457.661,0.30445554
3459.382,0.30449887
3461.105,0.30463688
3462.829,0.3048554
3464.556,0.30501294
3466.283,0.30496627
3468.013,0.30473255
3469.744,0.30446347
3471.477,0.30426781
3473.212,0.30415134
3474.948,0.30410856
3476.686,0.30414649
3478.426,0.30422365
3480.168,0.30428137
3481.911,0.30433299
3483.656,0.30446417
3485.403,0.30479646
3487.152,0.30544743
3488.902,0.30638247
3490.654,0.30727405
3492.408,0.307712
3494.164,0.30762116
3495.921,0.3073038
3497.68,0.30706075
3499.441,0.30697393
3501.204,0.30704561
3502.968,0.30730153
3504.734,0.30771316
3506.502,0.30819413
3508.272,0.3086852
3510.043,0.30914106
3511.817,0.30951139
3513.592,0.30983327
3515.368,0.31021844
3517.147,0.3106776
3518.927,0.31110676
3520.71,0.3114749
3522.494,0.31183629
3524.28,0.31216351
3526.067,0.31240572
3527.857,0.3127156
3529.648,0.31335883
3531.441,0.31434592
3533.236,0.31534937
3535.032,0.31601221
3536.831,0.31620794
3538.631,0.31604447
3540.433,0.31576248
3542.237,0.31559808
3544.043,0.3156287
3545.851,0.31577627
3547.66,0.31597468
3549.471,0.31624792
3551.284,0.31659781
3553.099,0.31695143
3554.916,0.31725755
3556.735,0.31753307
3558.555,0.31777907
3560.378,0.3179602
3562.202,0.31809361
3564.028,0.31827456
3565.856,0.31857592
3567.686,0.31896993
3569.518,0.31934708
3571.351,0.319592
3573.187,0.31966854
3575.024,0.31966031
3576.863,0.31970902
3578.704,0.3199047
3580.547,0.32024893
3582.392,0.32068769
3584.239,0.32111809
3586.088,0.32140591
3587.938,0.32148838
3589.791,0.32146857
3591.645,0.32154108
3593.501,0.32180938
3595.359,0.3221858
3597.22,0.32244854
3599.082,0.32240681
3600.946,0.32207433
3602.811,0.32168001
3604.679,0.32145774
3606.549,0.32145775
3608.421,0.32162628
3610.294,0.32197203
3612.17,0.32251469
3614.047,0.32313409
3615.926,0.32361471
3617.808,0.32382467
3619.691,0.32378753
3621.576,0.32364502
3623.463,0.32359523
3625.353,0.32375103
3627.244,0.32401792
3629.137,0.3242141
3631.032,0.32431682
3632.929,0.32445749
3634.828,0.32470657
3636.729,0.32500476
3638.632,0.32528069
3640.537,0.32550132
3642.444,0.32566478
3644.353,0.3258585
3646.263,0.32622291
3648.176,0.32675073
3650.091,0.32723124
3652.008,0.3274742
3653.927,0.32748782
3655.848,0.32739596
3657.771,0.32731329
3659.696,0.3273211
3661.623,0.32743851
3663.552,0.3275952
3665.483,0.3277144
3667.416,0.32780312
3669.351,0.32791228
3671.288,0.3280699
3673.227,0.32830941
3675.168,0.32867135
3677.111,0.3291371
3679.057,0.3296137
3681.004,0.33000411
3682.953,0.33024011
3684.905,0.33029017
3686.858,0.33020086
3688.814,0.33010357
3690.771,0.33011947
3692.731,0.33028646
3694.693,0.33057761
3696.656,0.33093867
3698.622,0.33130038
3700.59,0.33162052
3702.56,0.33190396
3704.532,0.33216211
3706.507,0.33237686
3708.483,0.33254077
3710.461,0.33268443
3712.442,0.33283873
3714.425,0.33299649
3716.409,0.33313178
3718.396,0.33323947
3720.385,0.3333458
3722.376,0.33347976
3724.37,0.33364579
3726.365,0.33383001
3728.362,0.33403682
3730.362,0.33428245
3732.364,0.33457114
3734.368,0.33489846
3736.374,0.33526623
3738.382,0.33566138
3740.392,0.33606597
3742.405,0.3364937
3744.419,0.3369436
3746.436,0.33733254
3748.455,0.33758994
3750.476,0.33778702
3752.499,0.33801966
3754.525,0.33822305
3756.553,0.33829565
3758.582,0.33830543
3760.614,0.33838381
3762.649,0.33853014
3764.685,0.33870221
3766.724,0.3389377
3768.764,0.33922736
3770.807,0.33946177
3772.853,0.33962898
3774.9,0.33983057
3776.95,0.34004746
3779.001,0.34015976
3781.056,0.34021556
3783.112,0.34037818
3785.17,0.34064517
3787.231,0.34090272
3789.294,0.3411647
3791.359,0.34148488
3793.427,0.34178805
3795.496,0.34202734
3797.568,0.34231178
3799.643,0.34267121
3801.719,0.34293781
3803.798,0.34302127
3805.879,0.34305208
3807.962,0.34313523
3810.048,0.34323221
3812.135,0.34334093
3814.225,0.3435351
3816.318,0.34380219
3818.412,0.34406272
3820.509,0.34431284
3822.609,0.3445733
3824.71,0.3447856
3826.814,0.34492137
3828.92,0.34508173
3831.029,0.34535067
3833.139,0.34566489
3835.252,0.34592399
3837.368,0.34611929
3839.486,0.34630237
3841.606,0.34652102
3843.728,0.34680735
3845.853,0.34715612
3847.98,0.3475174
3850.109,0.34785104
3852.241,0.34816924
3854.375,0.34851136
3856.512,0.34890814
3858.65,0.34935612
3860.792,0.34979374
3862.935,0.35013164
3865.081,0.35034633
3867.229,0.35050424
3869.38,0.35068023
3871.533,0.35090459
3873.689,0.35118411
3875.846,0.35149321
3878.007,0.35176815
3880.169,0.35198169
3882.334,0.3522025
3884.502,0.35250136
3886.672,0.35285961
3888.844,0.3532307
3891.019,0.35362156
3893.196,0.35402505
3895.375,0.35435808
3897.557,0.35455823
3899.742,0.3546742
3901.929,0.3547851
3904.118,0.35491362
3906.31,0.35507976
3908.504,0.35533311
3910.7,0.35566593
3912.9,0.35599293
3915.101,0.35627651
3917.305,0.35656673
3919.512,0.35688317
3921.721,0.35718062
3923.932,0.35746379
3926.146,0.3577932
3928.363,0.35815221
3930.581,0.35846341
3932.803,0.35872958
3935.027,0.3590194
3937.253,0.35932835
3939.482,0.35961091
3941.714,0.35989876
3943.948,0.36023585
3946.184,0.36056458
3948.423,0.36081218
3950.665,0.361005
3952.909,0.36119774
3955.156,0.36139131
3957.405,0.36161219
3959.657,0.36193857
3961.911,0.36237975
3964.168,0.36285314
3966.427,0.36330983
3968.689,0.36375904
3970.954,0.36418934
3973.221,0.36458998
3975.491,0.36501822
3977.763,0.36553239
3980.038,0.36610632
3982.315,0.3666818
3984.595,0.36724384
3986.878,0.36780737
3989.163,0.36840844
3991.451,0.36909858
3993.742,0.36986789
3996.035,0.3706125
3998.33,0.37126563
4000.629,0.37189398
4002.93,0.37258936
4005.233,0.37336112
4007.54,0.37417857
4009.849,0.37500732
4012.16,0.37578303
4014.475,0.37646836
4016.791,0.37712046
4019.111,0.37778943
4021.433,0.37842403
4023.758,0.37897504
4026.086,0.37950463
4028.416,0.380081
4030.749,0.38068409
4033.085,0.38129275
4035.423,0.38193804
4037.764,0.38259872
4040.108,0.38319888
4042.454,0.38375582
4044.804,0.38438844
4047.155,0.38512511
4049.51,0.38585201
4051.867,0.38647821
4054.228,0.38703375
4056.59,0.38757825
4058.956,0.38813451
4061.324,0.38872968
4063.695,0.38939046
4066.069,0.39007222
4068.446,0.39070176
4070.825,0.39130242
4073.207,0.39196425
4075.592,0.3926774
4077.98,0.39334932
4080.371,0.39398805
4082.764,0.39470403
4085.16,0.39550086
4087.559,0.39625779
4089.961,0.39694836
4092.365,0.39767104
4094.773,0.39845563
4097.183,0.39925422
4099.596,0.40009508
4102.012,0.40100897
4104.43,0.40188558
4106.852,0.40264221
4109.276,0.40340947
4111.703,0.40431454
4114.133,0.4052656
4116.566,0.40616363
4119.002,0.40709157
4121.441,0.40808496
4123.882,0.4090076
4126.327,0.40982021
4128.774,0.41067225
4131.224,0.41162446
4133.677,0.41258913
4136.133,0.41357031
4138.592,0.41463939
4141.054,0.4157176
4143.519,0.41668884
4145.987,0.4176209
4148.457,0.41861897
4150.931,0.41964084
4153.407,0.42065297
4155.887,0.4217249
4158.369,0.42284086
4160.854,0.42387581
4163.343,0.42481643
4165.834,0.42574047
4168.328,0.42662685
4170.826,0.42743968
4173.326,0.42827757
4175.829,0.42920833
4178.335,0.43016166
4180.844,0.43113479
4183.356,0.43222746
4185.872,0.43340059
4188.39,0.43453279
4190.911,0.43572621
4193.435,0.43723183
4195.963,0.43917988
4198.493,0.44167335
4201.026,0.44490762
4203.563,0.44887793
4206.102,0.45325895
4208.645,0.45786979
4211.19,0.46285438
4213.739,0.46812693
4216.291,0.47318984
4218.846,0.47779533
4221.404,0.48213905
4223.965,0.48622488
4226.529,0.48985018
4229.096,0.49321322
4231.666,0.49652435
4234.24,0.49927194
4236.816,0.50090215
4239.396,0.50176192
4241.979,0.50228916
4244.565,0.50202111
4247.154,0.50022263
4249.746,0.49688111
4252.341,0.49274105
4254.94,0.48912898
4257.542,0.48766434
4260.146,0.48938754
4262.754,0.49390135
4265.366,0.49945359
4267.98,0.50414364
4270.598,0.50712755
4273.219,0.50858811
4275.843,0.50915345
4278.47,0.50962789
4281.1,0.51055899
4283.734,0.51187987
4286.371,0.51327109
4289.011,0.51460185
4291.655,0.51569726
4294.301,0.51625647
4296.951,0.5163845
4299.604,0.51668435
4302.261,0.51745535
4304.92,0.51829815
4307.583,0.51870744
4310.25,0.51860891
4312.919,0.51815633
4315.592,0.51751861
4318.268,0.51699452
4320.948,0.51687565
4323.631,0.51707748
4326.317,0.51724586
4329.006,0.51723232
4331.699,0.51713114
4334.395,0.51695732
4337.095,0.5166921
4339.797,0.51655339
4342.504,0.51681447
4345.213,0.51743439
4347.926,0.51821276
4350.642,0.51911481
4353.362,0.52012001
4356.085,0.52102626
4358.811,0.521761
4361.541,0.52258952
4364.275,0.52370543
4367.011,0.52496323
4369.751,0.5262369
4372.495,0.5275951
4375.242,0.52898399
4377.992,0.53024691
4380.746,0.53152252
4383.504,0.53307256
4386.264,0.53477033
4389.029,0.53632796
4391.796,0.53784945
4394.567,0.53953889
4397.342,0.5411861
4400.12,0.5425865
4402.902,0.54404214
4405.687,0.54583372
4408.476,0.54771102
4411.268,0.54944078
4414.064,0.5511976
4416.863,0.55300805
4419.666,0.5545536
4422.472,0.55583308
4425.282,0.55720517
4428.096,0.55865159
4430.913,0.55986924
4433.734,0.56104462
4436.558,0.56258931
4439.386,0.56429524
4442.217,0.5656475
4445.052,0.56671227
4447.891,0.56785568
4450.733,0.56903764
4453.579,0.57011595
4456.428,0.57131394
4459.281,0.57273297
4462.138,0.57400351
4464.998,0.57494771
4467.863,0.57594274
4470.73,0.57722556
4473.602,0.57852653
4476.477,0.5796309
4479.355,0.5806748
4482.238,0.58170542
4485.124,0.58258658
4488.014,0.58337366
4490.908,0.58429504
4493.805,0.58534719
4496.706,0.58631728
4499.611,0.58715645
4502.519,0.58801989
4505.431,0.58899685
4508.347,0.59000291
4511.267,0.5909496
4514.191,0.59187337
4517.118,0.59286061
4520.049,0.59387906
4522.984,0.59484256
4525.923,0.59582471
4528.865,0.596965
4531.812,0.59814222
4534.762,0.59909198
4537.716,0.59988248
4540.674,0.60080874
4543.635,0.60186633
4546.601,0.60282754
4549.57,0.60378662
4552.543,0.6049936
4555.521,0.60631372
4558.502,0.60747398
4561.487,0.60861126
4564.475,0.60987828
4567.468,0.61090402
4570.465,0.61140153
4573.465,0.61190842
4576.47,0.61298261
4579.478,0.61429823
4582.491,0.61540577
4585.507,0.61652523
4588.527,0.6178378
4591.551,0.61896908
4594.58,0.61985533
4597.612,0.62110178
4600.648,0.62287955
4603.688,0.62451632
4606.732,0.62562783
4609.781,0.62659882
4612.833,0.62758686
4615.889,0.62828461
4618.949,0.62886714
4622.014,0.62995219
4625.082,0.63137915
4628.155,0.63240099
4631.231,0.63310123
4634.312,0.63427736
4637.397,0.63587158
4640.485,0.63713247
4643.578,0.63809493
4646.675,0.6393185
4649.777,0.64063846
4652.882,0.6415149
4655.991,0.64227854
4659.105,0.64362056
4662.223,0.64525262
4665.345,0.64655284
4668.471,0.64787426
4671.601,0.64975416
4674.735,0.65174488
4677.874,0.65327006
4681.017,0.65459662
4684.164,0.65583363
4687.315,0.65637561
4690.471,0.65633072
4693.63,0.65695624
4696.794,0.65876363
4699.962,0.66079287
4703.135,0.662362
4706.312,0.66388169
4709.493,0.66548714
4712.678,0.66663255
4715.868,0.66737529
4719.062,0.66842698
4722.26,0.6698253
4725.463,0.67102515
4728.669,0.67209565
4731.881,0.67344116
4735.096,0.67479097
4738.316,0.67567022
4741.541,0.67635203
4744.769,0.67732809
4748.002,0.67851949
4751.24,0.67971631
4754.482,0.68108873
4757.728,0.68269829
4760.979,0.68421778
4764.234,0.68549447
4767.494,0.6867717
4770.758,0.68815895
4774.026,0.68949271
4777.299,0.69072912
4780.577,0.69201756
4783.859,0.69340244
4787.145,0.69478041
4790.436,0.69604436
4793.732,0.69715395
4797.032,0.69815926
4800.336,0.69916382
4803.645,0.70019418
4806.959,0.70122956
4810.277,0.70241404
4813.6,0.70392914
4816.927,0.70556808
4820.259,0.70684272
4823.596,0.70757754
4826.937,0.70800995
4830.283,0.70837745
4833.633,0.70887019
4836.988,0.70975031
4840.348,0.7110052
4843.712,0.71220721
4847.081,0.71317375
4850.455,0.71428114
4853.833,0.71571794
4857.216,0.71704531
4860.604,0.71793286
4863.996,0.71869643
4867.393,0.71962811
4870.795,0.72042863
4874.202,0.72082186
4877.613,0.72115208
4881.03,0.72184577
4884.451,0.72285477
4887.876,0.72404942
4891.307,0.72549769
4894.742,0.72701162
4898.182,0.72810608
4901.627,0.72879784
4905.077,0.72973681
4908.532,0.7310412
4911.991,0.73196332
4915.456,0.73222584
4918.925,0.73256689
4922.399,0.73348043
4925.878,0.73464047
4929.362,0.73585538
4932.851,0.73727714
4936.345,0.73853288
4939.844,0.73907322
4943.347,0.739424
4946.856,0.74059129
4950.37,0.74238351
4953.888,0.74375392
4957.412,0.74446157
4960.941,0.74500206
4964.474,0.74544423
4968.013,0.74570471
4971.556,0.74628122
4975.105,0.74746525
4978.659,0.74850931
4982.218,0.74879198
4985.782,0.7489764
4989.351,0.74980812
4992.925,0.75088915
4996.504,0.75170973
5000.088,0.75262446
5003.678,0.75390399
5007.272,0.75516641
5010.872,0.75637386
5014.477,0.75801399
5018.087,0.75982246
5021.703,0.7607897
5025.323,0.76077254
5028.949,0.76070062
5032.58,0.76105393
5036.216,0.76152159
5039.857,0.76204517
5043.504,0.76290663
5047.156,0.7639149
5050.813,0.76463277
5054.475,0.76520599
5058.143,0.76603272
5061.816,0.76695796
5065.495,0.76765247
5069.179,0.76839532
5072.868,0.76966978
5076.562,0.77132872
5080.262,0.77279354
5083.967,0.77378174
5087.678,0.77437469
5091.394,0.77469252
5095.115,0.77493128
5098.842,0.7754385
5102.574,0.77637498
5106.312,0.77747552
5110.055,0.77838253
5113.804,0.77907954
5117.558,0.77978472
5121.318,0.78056582
5125.083,0.78132332
5128.854,0.7821513
5132.63,0.7834334
5136.412,0.78539921
5140.199,0.78773009
5143.992,0.78976131
5147.791,0.7909638
5151.595,0.79115522
5155.405,0.79055936
5159.22,0.78986928
5163.041,0.78986925
5166.868,0.7906715
5170.7,0.79165786
5174.538,0.79238692
5178.382,0.79308218
5182.231,0.79402674
5186.086,0.79519197
5189.947,0.79668638
5193.814,0.79874741
5197.686,0.80106156
5201.564,0.8029935
5205.448,0.80455009
5209.338,0.80604744
5213.233,0.80695494
5217.134,0.80649824
5221.041,0.80532075
5224.954,0.80496394
5228.873,0.80587707
5232.798,0.80727332
5236.728,0.8085702
5240.665,0.80969431
5244.607,0.81041282
5248.555,0.81065161
5252.51,0.81101642
5256.47,0.81193865
5260.436,0.81300549
5264.408,0.81393523
5268.386,0.81518821
5272.37,0.81688572
5276.36,0.81839489
5280.356,0.81960936
5284.358,0.82121351
5288.367,0.82312392
5292.381,0.82421638
5296.401,0.82412424
5300.428,0.82379599
5304.46,0.82389278
5308.499,0.82419211
5312.544,0.82466136
5316.595,0.8256237
5320.652,0.8268168
5324.715,0.82761856
5328.785,0.82823086
5332.86,0.82955168
5336.942,0.8320368
5341.031,0.83545761
5345.125,0.83921361
5349.226,0.84209293
5353.333,0.842634
5357.446,0.84083829
5361.566,0.8386069
5365.692,0.83765959
5369.824,0.83798613
5373.962,0.83870528
5378.107,0.83944445
5382.259,0.84023578
5386.417,0.84092053
5390.581,0.84145587
5394.751,0.8422439
5398.928,0.84358218
5403.112,0.84542283
5407.302,0.84799058
5411.498,0.8517332
5415.701,0.85607893
5419.911,0.85911637
5424.127,0.85947816
5428.349,0.85794473
5432.579,0.85625009
5436.814,0.85537541
5441.057,0.85567711
5445.305,0.8574084
5449.561,0.86044851
5453.823,0.86436341
5458.092,0.86900003
5462.368,0.8740656
5466.65,0.87826931
5470.939,0.88053984
5475.234,0.88181193
5479.537,0.88355519
5483.846,0.88530835
5488.162,0.88594603
5492.484,0.88627323
5496.814,0.88797368
5501.15,0.89147668
5505.493,0.89686184
5509.843,0.90491044
5514.2,0.91547876
5518.564,0.92663594
5522.934,0.93669294
5527.312,0.94555734
5531.696,0.95415448
5536.087,0.96398526
5540.486,0.97412476
5544.891,0.97323796
5549.303,0.93975456
5553.723,0.86699216
5558.149,0.79328594
5562.582,0.71136926
5567.023,0.64950764
5571.47,0.62272622
5575.925,0.6184056
5580.387,0.64228167
5584.856,0.67834631
5589.332,0.70531844
5593.815,0.72305663
5598.305,0.73831138
5602.803,0.75038986
5607.307,0.75692887
5611.819,0.763729
5616.339,0.77407646
5620.865,0.78270194
5625.399,0.78653048
5629.94,0.7909717
5634.489,0.79837706
5639.044,0.80342326
5643.607,0.80385895
5648.178,0.80532911
5652.756,0.80914216
5657.341,0.81058898
5661.934,0.80988953
5666.534,0.81244635
5671.142,0.81792697
5675.757,0.82082047
5680.379,0.82118044
5685.01,0.82367226
5689.647,0.82723492
5694.293,0.82757279
5698.945,0.82694004
5703.606,0.83025534
5708.274,0.83549134
5712.949,0.8372985
5717.633,0.8372632
5722.324,0.83941986
5727.022,0.84172246
5731.729,0.84116779
5736.443,0.84113642
5741.165,0.84461366
5745.894,0.84794845
5750.631,0.84835867
5755.377,0.85034206
5760.13,0.85652135
5764.89,0.86132997
5769.659,0.86089647
5774.436,0.86008146
5779.22,0.86124134
5784.012,0.86038109
5788.813,0.85726702
5793.621,0.85721363
5798.437,0.86095222
5803.262,0.86375174
5808.094,0.86553408
5812.934,0.87063051
5817.782,0.877262
5822.639,0.87877319
5827.503,0.87650332
5832.376,0.87632893
5837.257,0.87717972
5842.146,0.87579691
5847.043,0.87562219
5851.948,0.88000933
5856.862,0.88481967
5861.783,0.88576265
5866.714,0.88684597
5871.652,0.89125633
5876.598,0.89457218
5881.553,0.89371244
5886.517,0.89342174
5891.488,0.89504408
5896.468,0.89380311
5901.457,0.89010508
5906.454,0.88967707
5911.459,0.8923565
5916.473,0.89357948
5921.495,0.89407595
5926.526,0.8978966
5931.565,0.90264221
5936.613,0.90246979
5941.67,0.8995751
5946.735,0.89900262
5951.809,0.89935491
5956.891,0.89836308
5961.982,0.89866058
5967.082,0.90159595
5972.19,0.90335391
5977.307,0.90231935
5982.433,0.9022244
5987.568,0.90380796
5992.711,0.90342797
5997.864,0.90143972
6003.025,0.90174113
6008.195,0.90364578
6013.374,0.9032041
6018.562,0.90133634
6023.759,0.9019148
6028.964,0.90476538
6034.179,0.90744767
6039.403,0.9102579
6044.636,0.91347017
6049.878,0.91429147
6055.129,0.91250031
6060.389,0.91215899
6065.658,0.91393051
6070.936,0.91423371
6076.224,0.91202936
6081.52,0.91046804
6086.826,0.91076969
6092.141,0.91156342
6097.466,0.91298655
6102.8,0.91588743
6108.143,0.91830918
6113.495,0.91795227
6118.857,0.91652164
6124.228,0.91637879
6129.609,0.91691475
6134.999,0.91731673
6140.398,0.91852889
6145.807,0.92061595
6151.226,0.921831
6156.654,0.92185576
6162.091,0.92231475
6167.539,0.92353087
6172.996,0.92435028
6178.462,0.92474987
6183.938,0.92550405
6189.424,0.92617771
6194.92,0.92623088
6200.425,0.92657701
6205.94,0.92774565
6211.465,0.92870841
6217.0,0.92888086
6222.544,0.92936693
6228.099,0.93071904
6233.663,0.93183338
6239.237,0.93205956
6244.822,0.93228907
6250.416,0.93302792
6256.02,0.93375033
6261.635,0.93448494
6267.259,0.93590854
6272.893,0.9375033
6278.538,0.93801995
6284.193,0.93767567
6289.858,0.93776213
6295.533,0.93834353
6301.218,0.93871054
6306.914,0.9392326
6312.619,0.94053816
6318.336,0.9419078
6324.062,0.94271021
6329.799,0.94376248
6335.546,0.94533788
6341.304,0.94592502
6347.072,0.94535706
6352.851,0.94580088
6358.64,0.94779113
6364.44,0.94916444
6370.25,0.94892749
6376.071,0.94855848
6381.903,0.94863081
6387.745,0.94852167
6393.598,0.94916353
6399.461,0.95182148
6405.335,0.95460661
6411.221,0.9545758
6417.116,0.95313986
6423.023,0.95284601
6428.941,0.95267733
6434.869,0.95173194
6440.809,0.95177268
6446.759,0.95331346
6452.72,0.95421183
6458.693,0.95413972
6464.676,0.95541119
6470.671,0.95799645
6476.676,0.95908518
6482.693,0.95847116
6488.721,0.95854002
6494.76,0.95884212
6500.81,0.95787409
6506.872,0.95751825
6512.945,0.95927776
6519.029,0.96086646
6525.124,0.9604613
6531.231,0.96016713
6537.35,0.96135446
6543.48,0.96208592
6549.621,0.96166598
6555.774,0.9622914
6561.938,0.96417052
6568.114,0.96487144
6574.302,0.96463847
6580.501,0.96567584
6586.712,0.96707002
6592.934,0.96675028
6599.169,0.96612064
6605.415,0.96728033
6611.673,0.96907509
6617.943,0.96971899
6624.224,0.97010104
6630.518,0.97090535
6636.823,0.97047386
6643.141,0.96892184
6649.47,0.96882966
6655.812,0.97038896
6662.166,0.97136699
6668.532,0.97121338
6674.91,0.97143969
6681.3,0.97210489
6687.702,0.97216736
6694.117,0.97239923
6700.544,0.97383711
6706.983,0.97518964
6713.435,0.97500364
6719.899,0.97439974
6726.375,0.97463849
6732.864,0.97497461
6739.365,0.97492435
6745.879,0.97549283
6752.406,0.97685488
6758.945,0.9777068
6765.497,0.97776097
6772.062,0.97801669
6778.639,0.97835433
6785.229,0.97779045
6791.832,0.97700183
6798.448,0.97727775
6805.076,0.97814563
6811.718,0.97863041
6818.372,0.97916239
6825.039,0.98021402
6831.72,0.98095642
6838.413,0.98100487
6845.12,0.98133457
6851.84,0.9822216
6858.573,0.98252216
6865.319,0.98213062
6872.078,0.98224691
6878.851,0.98280634
6885.637,0.98287231
6892.437,0.98279754
6899.25,0.98343738
6906.076,0.98416823
6912.916,0.98410136
6919.769,0.98401146
6926.636,0.98468746
6933.517,0.98532441
6940.411,0.98527875
6947.319,0.98541946
6954.241,0.9861801
6961.176,0.98664286
6968.125,0.98672611
6975.089,0.98741983
6982.066,0.98849866
6989.057,0.98884867
6996.062,0.98874259
7003.081,0.9892219
7010.114,0.98992087
7017.161,0.98999653
7024.223,0.99004646
7031.298,0.99087199
7038.388,0.99177156
7045.492,0.9920522
7052.611,0.99244106
7059.743,0.99330534
7066.891,0.99379908
7074.052,0.9936708
7081.229,0.99376536
7088.419,0.99428163
7095.625,0.99452979
7102.845,0.99455282
7110.079,0.9950647
7117.329,0.99593801
7124.593,0.99647579
7131.872,0.99675684
7139.166,0.99725131
7146.475,0.99773147
7153.799,0.99777997
7161.137,0.99770514
7168.491,0.99799175
7175.86,0.99848071
7183.244,0.99881342
7190.643,0.99905496
7198.058,0.99943353
7205.487,0.99986908
7212.933,0.0100015226
7220.393,0.0100036353
7227.869,0.0100075439
7235.36,0.0100130686
7242.867,0.0100174468
7250.39,0.0100201883
7257.928,0.0100235781
7265.481,0.0100275805
7273.051,0.0100298354
7280.636,0.0100316479
7288.237,0.0100365074
7295.854,0.0100426674
7303.487,0.0100456167
7311.135,0.0100468009
7318.8,0.0100507243
7326.481,0.0100559098
7334.178,0.0100583891
7341.891,0.0100602789
7349.62,0.0100648381
7357.366,0.0100696664
7365.128,0.0100728574
7372.906,0.0100778256
7380.701,0.0100854726
7388.512,0.0100912396
7396.34,0.010094262
7404.184,0.0100993488
7412.045,0.0101070015
7419.922,0.010112542
7427.817,0.0101151433
7435.728,0.0101179793
7443.656,0.0101211487
7451.601,0.0101233226
7459.562,0.0101262112
7467.541,0.0101308937
7475.537,0.0101346915
7483.55,0.0101364638
7491.58,0.010138695
7499.628,0.0101424271
7507.692,0.0101460968
7515.774,0.0101493321
7523.874,0.0101527033
7531.99,0.0101553688
7540.125,0.0101569995
7548.277,0.0101588037
7556.446,0.0101607811
7564.633,0.0101620311
7572.838,0.0101636291
7581.061,0.0101665076
7589.302,0.0101688959
7597.56,0.0101699013
7605.837,0.0101715588
7614.131,0.010174101
7622.444,0.0101749553
7630.774,0.0101742242
7639.123,0.0101746246
7647.491,0.0101758435
7655.876,0.0101760344
7664.28,0.0101768831
7672.702,0.0101804586
7681.143,0.0101843308
7689.602,0.0101860963
7698.08,0.0101877634
7706.577,0.0101907265
7715.093,0.0101927226
7723.627,0.0101934042
7732.18,0.0101959185
7740.752,0.0102005692
7749.343,0.0102042604
7757.953,0.0102066469
7766.583,0.0102100924
7775.231,0.0102141624
7783.899,0.0102169696
7792.586,0.010219738
7801.292,0.0102244535
7810.018,0.0102298399
7818.764,0.0102341555
7827.529,0.0102385538
7836.313,0.0102441273
7845.117,0.0102493765
7853.942,0.0102532594
7862.786,0.0102571195
7871.649,0.0102619451
7880.533,0.010266825
7889.437,0.0102711045
7898.361,0.0102751766
7907.305,0.0102789544
7916.27,0.0102818882
7925.254,0.0102845851
7934.26,0.0102881581
7943.285,0.0102925429
7952.331,0.0102969689
7961.398,0.0103016781
7970.485,0.0103072813
7979.594,0.0103131251
7988.723,0.0103177903
7997.872,0.0103210917
8007.043,0.0103240071
8016.235,0.0103271483
8025.448,0.0103303901
8034.682,0.0103338033
8043.937,0.0103374599
8053.214,0.010340941
8062.512,0.0103439348
8071.832,0.0103466048
8081.173,0.0103489243
8090.535,0.0103507367
8099.92,0.0103528534
8109.326,0.0103562531
8118.754,0.0103603492
8128.204,0.0103638592
8137.676,0.0103668624
8147.169,0.0103700575
8156.686,0.0103731963
8166.224,0.0103760831
8175.785,0.0103795733
8185.368,0.0103838808
8194.973,0.0103879315
8204.601,0.0103914251
8214.252,0.0103951773
8223.925,0.0103989001
8233.621,0.0104015329
8243.34,0.0104037579
8253.082,0.010407176
8262.847,0.0104116772
8272.635,0.0104159819
8282.446,0.0104199423
8292.281,0.0104239181
8302.139,0.0104275694
8312.02,0.0104309007
8321.925,0.0104348764
8331.853,0.0104395815
8341.805,0.0104437699
8351.781,0.0104468671
8361.781,0.0104496965
8371.804,0.0104528372
8381.852,0.0104559134
8391.924,0.0104585418
8402.02,0.0104610333
8412.14,0.010463659
8422.285,0.0104661206
8432.454,0.0104680603
8442.648,0.0104699137
8452.866,0.0104724362
8463.109,0.010475611
8473.377,0.0104788357
8483.67,0.0104822484
8493.988,0.010486028
8504.331,0.0104890858
8514.699,0.0104903631
8525.092,0.0104908756
8535.511,0.0104919231
8545.955,0.0104929762
8556.425,0.0104935399
8566.921,0.0104949804
8577.442,0.0104977352
8587.989,0.010500078
8598.562,0.0105012629
8609.161,0.0105026481
8619.786,0.0105043105
8630.437,0.0105050159
8641.115,0.010505485
8651.819,0.0105074264
8662.55,0.0105100205
8673.307,0.0105117115
8684.091,0.0105133894
8694.902,0.01051605
8705.739,0.0105184873
8716.604,0.0105201521
8727.496,0.0105225399
8738.415,0.0105257517
8749.361,0.0105281482
8760.335,0.0105298988
8771.336,0.0105325126
8782.365,0.0105357252
8793.422,0.0105388044
8804.507,0.0105425488
8815.619,0.0105469862
8826.76,0.0105506298
8837.928,0.0105537733
8849.125,0.0105580482
8860.351,0.0105625636
8871.604,0.0105655353
8882.887,0.0105681399
8894.198,0.0105718669
8905.538,0.0105750822
8916.907,0.0105766661
8928.305,0.0105785152
8939.732,0.0105811564
8951.188,0.0105826383
8962.673,0.0105834317
8974.189,0.0105855527
8985.733,0.010587532
8997.308,0.0105868637
9008.912,0.0105854551
9020.546,0.0105855793
9032.21,0.0105849304
9043.905,0.0105815112
9055.629,0.0105781071
9067.384,0.01057649
9079.17,0.0105744151
9090.986,0.0105713576
9102.833,0.0105698223
9114.711,0.0105690097
9126.62,0.0105655648
9138.56,0.0105602195
9150.531,0.0105562686
9162.534,0.0105531849
9174.568,0.0105490061
9186.634,0.0105453342
9198.731,0.0105440055
9210.86,0.0105428958
9223.022,0.0105402672
9235.215,0.0105379177
9247.441,0.010536949
9259.699,0.0105354776
9271.99,0.0105330693
9284.313,0.01053178
9296.669,0.0105319637
9309.058,0.0105316794
9321.48,0.0105305339
9333.935,0.0105298994
9346.423,0.0105299221
9358.945,0.0105295849
9371.5,0.0105291901
9384.089,0.0105297061
9396.712,0.0105309403
9409.369,0.0105319976
9422.06,0.010532905
9434.785,0.0105340018
9447.545,0.0105349194
9460.339,0.0105352232
9473.167,0.0105355786
9486.031,0.0105366806
9498.929,0.010537932
9511.863,0.0105383853
9524.832,0.0105384362
9537.836,0.010539111
9550.876,0.0105405038
9563.951,0.0105420681
9577.062,0.010543837
9590.209,0.0105457027
9603.393,0.0105469122
9616.612,0.0105473261
9629.868,0.0105479067
9643.16,0.010549023
9656.49,0.0105500619
9669.856,0.0105509568
9683.259,0.0105521961
9696.699,0.0105533078
9710.176,0.0105534997
9723.691,0.0105532339
9737.244,0.0105533645
9750.834,0.0105535627
9764.463,0.0105533041
9778.129,0.0105528458
9791.834,0.0105522781
9805.577,0.0105512971
9819.359,0.0105507235
9833.18,0.0105517442
9847.039,0.0105539573
9860.938,0.0105560239
9874.875,0.0105579967
9888.853,0.0105605031
9902.869,0.0105630211
9916.926,0.0105645368
9931.022,0.0105651964
9945.159,0.0105653687
9959.336,0.0105648811
9973.553,0.0105640959
9987.811,0.0105642676
10002.109,0.0105656184
10016.449,0.0105668796
10030.83,0.010567146
10045.252,0.0105668799
10059.715,0.0105665662
10074.221,0.010566164
10088.768,0.0105660468
10103.357,0.01056715
10117.988,0.0105694016
10132.662,0.0105716793
10147.378,0.0105733557
10162.137,0.0105749377
10176.939,0.0105766853
10191.784,0.010578207
10206.672,0.0105795356
10221.604,0.010581224
10236.58,0.0105829348
10251.6,0.0105838311
10266.663,0.0105843235
10281.771,0.0105854908
10296.924,0.0105869101
10312.121,0.0105875086
10327.363,0.0105878172
10342.65,0.0105890678
10357.982,0.0105908969
10373.36,0.0105924668
10388.784,0.0105941914
10404.253,0.0105963198
10419.769,0.0105976384
10435.331,0.0105975937
10450.939,0.0105970388
10466.594,0.0105960937
10482.296,0.0105941049
10498.045,0.010591948
10513.842,0.0105910411
10529.686,0.0105909252
10545.577,0.0105907303
10561.517,0.0105912171
10577.505,0.0105926293
10593.542,0.0105935136
10609.627,0.0105935624
10625.761,0.0105941101
10641.944,0.0105947708
10658.176,0.0105940554
10674.458,0.0105927488
10690.79,0.010592403
10707.172,0.0105921954
10723.604,0.0105915733
10740.086,0.0105923424
10756.619,0.0105946808
10773.203,0.0105957834
10789.839,0.0105952776
10806.525,0.0105955237
10823.264,0.0105962196
10840.054,0.0105953858
10856.896,0.0105948193
10873.791,0.0105968223
10890.738,0.0105988671
10907.738,0.0105982841
10924.791,0.0105976358
10941.898,0.0105988259
10959.058,0.0105991924
10976.272,0.0105979127
10993.541,0.0105981334
11010.863,0.0105995468
11028.24,0.0105984439
11045.672,0.0105955267
11063.16,0.010594284
11080.702,0.0105932906
11098.301,0.0105899211
11115.955,0.0105869731
11133.665,0.0105870587
11151.432,0.0105866941
11169.256,0.0105833246
11187.137,0.010580111
11205.075,0.0105787997
11223.07,0.010576682
11241.124,0.0105737453
11259.235,0.0105730569
11277.405,0.0105738781
11295.634,0.0105730713
11313.921,0.0105716981
11332.268,0.0105719454
11350.675,0.0105718002
11369.141,0.0105689761
11387.667,0.0105654041
11406.254,0.0105627824
11424.901,0.0105597397
11443.61,0.010555921
11462.38,0.0105531166
11481.211,0.0105512163
11500.105,0.0105483547
11519.06,0.0105446496
11538.079,0.0105415339
11557.16,0.0105389788
11576.304,0.0105366264
11595.511,0.0105350981
11614.783,0.0105343305
11634.118,0.0105328773
11653.518,0.0105302303
11672.983,0.0105273819
11692.513,0.0105251894
11712.108,0.0105234963
11731.769,0.0105221402
11751.496,0.0105211012
11771.29,0.0105202885
11791.15,0.0105195087
11811.077,0.010518858
11831.072,0.0105186104
11851.134,0.0105190702
11871.265,0.0105199727
11891.464,0.0105209867
11911.731,0.0105220472
11932.068,0.0105227084
11952.475,0.0105218645
11972.951,0.0105198504
11993.497,0.0105187542
12014.114,0.0105196468
12034.802,0.0105211756
12055.562,0.0105226038
12076.393,0.0105241487
12097.296,0.0105246632
12118.271,0.0105227834
12139.32,0.0105203218
12160.441,0.010519358
12181.636,0.0105185197
12202.905,0.0105163804
12224.249,0.0105152568
12245.667,0.0105161822
12267.16,0.0105160518
12288.729,0.0105135997
12310.373,0.0105116821
12332.094,0.0105106426
12353.892,0.0105074428
12375.767,0.0105027936
12397.719,0.0105005654
12419.75,0.0105000873
12441.859,0.0104981564
12464.046,0.0104962654
12486.313,0.0104972119
12508.659,0.0104984724
12531.086,0.0104970463
12553.593,0.0104951334
12576.18,0.0104948856
12598.85,0.0104938833
12621.601,0.0104910761
12644.434,0.0104895996
12667.35,0.0104903907
12690.349,0.0104899575
12713.432,0.0104877755
12736.599,0.0104876036
12759.85,0.0104903015
12783.187,0.01049235
12806.608,0.0104926596
12830.116,0.0104934405
12853.71,0.0104947463
12877.391,0.010494515
12901.159,0.010493599
12925.016,0.0104945595
12948.96,0.0104966255
12972.993,0.010497311
12997.116,0.0104978163
13021.329,0.0105006944
13045.631,0.0105046089
13070.025,0.0105066761
13094.51,0.0105078618
13119.087,0.0105102176
13143.756,0.0105124561
13168.518,0.010513275
13193.373,0.010514989
13218.322,0.0105183171
13243.366,0.0105197445
13268.505,0.0105180558
13293.74,0.0105173151
13319.07,0.0105192581
13344.497,0.0105211136
13370.021,0.0105223534
13395.644,0.0105250593
13421.364,0.0105272255
13447.183,0.0105255875
13473.102,0.0105222488
13499.121,0.0105200879
13525.24,0.010516466
13551.461,0.0105103709
13577.783,0.0105063964
13604.208,0.010505744
13630.736,0.0105033268
13657.367,0.0104988451
13684.103,0.010496573
13710.943,0.01049438
13737.889,0.010486774
13764.941,0.010477527
13792.099,0.0104727407
13819.365,0.0104691859
13846.739,0.0104631997
13874.221,0.0104602228
13901.813,0.0104619369
13929.515,0.0104605486
13957.327,0.0104543801
13985.25,0.0104514858
14013.285,0.0104514531
14041.433,0.0104464962
14069.694,0.0104400208
14098.068,0.0104408664
14126.558,0.0104432972
14155.163,0.010437945
14183.883,0.0104306796
14212.721,0.0104287519
14241.676,0.010424351
14270.749,0.0104135724
14299.94,0.0104081309
14329.252,0.0104121873
14358.684,0.0104130882
14388.237,0.0104074073
14417.911,0.0104047305
14447.709,0.0104030244
14477.629,0.0103912511
14507.674,0.0103760902
14537.844,0.0103711161
14568.139,0.0103709729
14598.561,0.0103644605
14629.109,0.0103589127
14659.786,0.0103612052
14690.592,0.0103605197
14721.528,0.010350818
14752.594,0.0103460102
14783.791,0.010349734
14815.121,0.0103438438
14846.583,0.010314162
14878.179,0.0102650134
14909.91,0.0102063977
14941.777,0.0101610209
14973.78,0.0101591444
15005.92,0.0102032586
15038.198,0.010251045
15070.616,0.0102680734
15103.173,0.0102538276
15135.871,0.0102281231
15168.712,0.0102002394
15201.695,0.010177269
15234.821,0.0101507808
15268.092,0.0101154584
15301.509,0.0100712444
15335.072,0.0100344075
15368.783,0.99905546
15402.642,0.99374208
15436.651,0.98727491
15470.81,0.98191335
15505.12,0.97443099
15539.583,0.96679549
15574.199,0.96004347
15608.97,0.95552828
15643.896,0.94325452
15678.979,0.92626534
15714.22,0.90660035
15749.619,0.89166065
15785.178,0.87473456
15820.897,0.8592537
15856.779,0.84638304
15892.824,0.83789454
15929.033,0.81795038
15965.407,0.78752993
