Database of Origin,University of Winnipeg Spectrophotometer Facility
Sample Description,"Carbonates and Oxolates -  D&P 102F Reflectance spectra december 2006 ""for Montreal"""
Date Added,2018-08-06 21:13:19.625788

Data ID,FTIR_CARB_40_2      
Sample ID,crb208n
Mineral Name,Hydromagnesite
Locality,San Benito Mountains/ San Benito County/ California/ USA
Grain Size,Whole rock
Viewing Geometry,i=30/ e=0?
Resolution,~1.5 cm-1
Formula,Mg5(CO3)4(OH)2*4(H2O)
Composition,XRD shows almost total magnesite/ no hydromagnesite shows up.

Wavelength
2.00056,0.0166974916
2.001142,0.0167266264
2.001725,0.0167529313
2.002307,0.0167813047
2.002891,0.0168133197
2.003474,0.0168473623
2.004058,0.0168822513
2.004643,0.016918586
2.005227,0.0169558017
2.005812,0.0169904549
2.006397,0.0170206813
2.006983,0.0170517097
2.007569,0.0170937457
2.008155,0.0171523713
2.008742,0.0172213909
2.009329,0.0172864812
2.009916,0.0173365941
2.010504,0.0173720633
2.011092,0.0174020156
2.01168,0.0174353064
2.012269,0.0174745776
2.012858,0.0175172772
2.013447,0.0175599377
2.014037,0.0176009118
2.014627,0.0176406576
2.015217,0.0176802965
2.015808,0.017720343
2.016399,0.0177610909
2.01699,0.0178040659
2.017582,0.0178525056
2.018174,0.0179100944
2.018766,0.0179773551
2.019359,0.0180489801
2.019952,0.0181155945
2.020546,0.0181694185
2.021139,0.0182100772
2.021733,0.0182456973
2.022328,0.0182865375
2.022923,0.0183367443
2.023518,0.018393611
2.024113,0.018452681
2.024709,0.0185111565
2.025305,0.0185666747
2.025902,0.0186146162
2.026499,0.01864926
2.027096,0.0186706015
2.027693,0.0186875188
2.028291,0.0187112393
2.02889,0.0187468267
2.029488,0.0187929427
2.030087,0.0188489575
2.030686,0.0189174896
2.031286,0.0189971367
2.031886,0.0190763373
2.032486,0.0191404386
2.033087,0.019185803
2.033688,0.0192242696
2.034289,0.019272353
2.034891,0.0193357355
2.035493,0.0194054786
2.036096,0.0194688509
2.036698,0.019522178
2.037302,0.0195723927
2.037905,0.0196274855
2.038509,0.0196877049
2.039113,0.0197469486
2.039718,0.0198011146
2.040322,0.0198524549
2.040928,0.0199060811
2.041533,0.0199645135
2.042139,0.0200263147
2.042746,0.0200897192
2.043352,0.0201553185
2.043959,0.0202237419
2.044567,0.0202931889
2.045174,0.020361393
2.045782,0.0204274188
2.046391,0.0204895846
2.047,0.0205440089
2.047609,0.0205888297
2.048218,0.0206300965
2.048828,0.0206802692
2.049438,0.0207478679
2.050049,0.0208293288
2.05066,0.0209136433
2.051271,0.0209945989
2.051883,0.021074752
2.052495,0.0211566919
2.053107,0.021235521
2.05372,0.0213034857
2.054333,0.0213599052
2.054947,0.0214132842
2.05556,0.0214735666
2.056175,0.021543561
2.056789,0.0216189696
2.057404,0.0216960705
2.058019,0.0217778076
2.058635,0.0218699097
2.059251,0.0219710103
2.059867,0.0220685732
2.060484,0.0221477771
2.061101,0.0222047373
2.061718,0.0222508586
2.062336,0.0223042333
2.062954,0.0223757427
2.063573,0.0224620651
2.064192,0.0225509501
2.064811,0.022631429
2.065431,0.0227009003
2.066051,0.0227658139
2.066671,0.0228358985
2.067292,0.022915731
2.067913,0.0230020205
2.068534,0.0230877131
2.069156,0.0231679849
2.069778,0.0232426815
2.070401,0.0233152487
2.071024,0.0233910237
2.071647,0.0234733805
2.072271,0.023560856
2.072895,0.0236483717
2.073519,0.0237296292
2.074144,0.0237997329
2.074769,0.0238585934
2.075395,0.0239126841
2.07602,0.023972751
2.076647,0.0240472804
2.077273,0.0241383916
2.0779,0.0242418524
2.078528,0.0243467683
2.079155,0.0244374919
2.079784,0.0245023159
2.080412,0.0245451849
2.081041,0.0245894057
2.08167,0.0246632232
2.0823,0.0247762787
2.08293,0.024909939
2.08356,0.0250322477
2.084191,0.025125298
2.084822,0.0251968977
2.085454,0.0252651132
2.086085,0.0253386375
2.086718,0.0254158732
2.08735,0.025496528
2.087983,0.0255858406
2.088617,0.0256849224
2.089251,0.025783248
2.089885,0.0258680802
2.090519,0.025940526
2.091154,0.0260157541
2.091789,0.0261077285
2.092425,0.0262191259
2.093061,0.0263437718
2.093697,0.0264721152
2.094334,0.0265924413
2.094971,0.0266956682
2.095609,0.0267873406
2.096247,0.0268919879
2.096885,0.0270361216
2.097524,0.0272231603
2.098163,0.0274292705
2.098803,0.0276276422
2.099443,0.0278121121
2.100083,0.0279945714
2.100723,0.028190134
2.101364,0.0284091601
2.102006,0.0286593336
2.102648,0.0289488908
2.10329,0.0292805534
2.103932,0.029641817
2.104575,0.0300052838
2.105219,0.0303385919
2.105862,0.0306156865
2.106506,0.0308306535
2.107151,0.0310103096
2.107796,0.0312035228
2.108441,0.031448535
2.109087,0.0317477477
2.109733,0.032068784
2.110379,0.0323726298
2.111026,0.0326460714
2.111673,0.0329026614
2.112321,0.0331503509
2.112969,0.0333705692
2.113617,0.0335363111
2.114266,0.0336421649
2.114915,0.0337134979
2.115565,0.0337932121
2.116215,0.0339154484
2.116865,0.0340830025
2.117516,0.0342720794
2.118167,0.0344587144
2.118819,0.034633586
2.119471,0.0347893356
2.120123,0.0349040696
2.120776,0.0349434157
2.121429,0.03489048
2.122082,0.0347801772
2.122736,0.034679666
2.123391,0.0346240407
2.124045,0.0345865988
2.1247,0.0345094969
2.125356,0.0343534866
2.126012,0.0341145431
2.126668,0.0338021378
2.127325,0.0334326494
2.127982,0.0330594893
2.12864,0.0327890696
2.129297,0.0327390211
2.129956,0.0329672773
2.130614,0.0334276039
2.131274,0.0339855912
2.131933,0.0344882162
2.132593,0.0348375901
2.133253,0.0350261765
2.133914,0.0351229167
2.134575,0.0352167711
2.135237,0.035354703
2.135899,0.0355277817
2.136561,0.0357051098
2.137224,0.0358697011
2.137887,0.0360203593
2.13855,0.0361462606
2.139214,0.0362212034
2.139879,0.0362347038
2.140544,0.0362207063
2.141209,0.036241324
2.141874,0.0363338047
2.14254,0.0364745625
2.143207,0.036605848
2.143873,0.0366982113
2.144541,0.0367678741
2.145208,0.0368360515
2.145876,0.0368931887
2.146545,0.0369086219
2.147214,0.0368712307
2.147883,0.0368084146
2.148553,0.0367617524
2.149223,0.0367512551
2.149893,0.0367689705
2.150564,0.0368059482
2.151235,0.036869646
2.151907,0.0369604993
2.152579,0.0370398174
2.153252,0.0370454819
2.153925,0.0369515974
2.154598,0.0368022562
2.155272,0.0366686567
2.155946,0.0365838255
2.156621,0.0365326308
2.157296,0.0364824263
2.157972,0.0364073116
2.158647,0.0362980867
2.159324,0.0361688451
2.160001,0.0360475323
2.160678,0.0359550915
2.161355,0.035898921
2.162033,0.0358682056
2.162712,0.0358328441
2.16339,0.0357629923
2.16407,0.0356535466
2.164749,0.035531285
2.165429,0.0354345019
2.16611,0.0353779794
2.166791,0.0353441292
2.167472,0.0353071395
2.168154,0.03525053
2.168836,0.0351676702
2.169519,0.0350621677
2.170202,0.0349460143
2.170885,0.0348311243
2.171569,0.0347257508
2.172254,0.0346427503
2.172938,0.0346036235
2.173624,0.0346272043
2.174309,0.034714096
2.174995,0.0348405095
2.175682,0.034970726
2.176368,0.03507389
2.177056,0.0351253059
2.177743,0.0351078116
2.178432,0.0350298966
2.17912,0.0349371793
2.179809,0.0348887003
2.180499,0.0349100913
2.181189,0.0349746404
2.181879,0.0350355669
2.18257,0.0350703276
2.183261,0.0350912256
2.183952,0.0351192653
2.184644,0.0351524701
2.185337,0.0351638143
2.18603,0.0351361422
2.186723,0.0350913347
2.187417,0.0350742196
2.188111,0.035116234
2.188806,0.0352124062
2.189501,0.0353244001
2.190196,0.0354085074
2.190892,0.0354455879
2.191589,0.0354467127
2.192285,0.0354364054
2.192983,0.0354272555
2.19368,0.0354126208
2.194379,0.0353856533
2.195077,0.0353525146
2.195776,0.0353302923
2.196476,0.0353372812
2.197175,0.0353776879
2.197876,0.0354330107
2.198577,0.0354706595
2.199278,0.0354639723
2.199979,0.0354126286
2.200682,0.0353457181
2.201384,0.0352986461
2.202087,0.0352830138
2.20279,0.0352726977
2.203494,0.0352218261
2.204199,0.0351062089
2.204903,0.0349413914
2.205609,0.0347586948
2.206314,0.0345752513
2.20702,0.0343940839
2.207727,0.0342240899
2.208434,0.0340842461
2.209141,0.0339874683
2.209849,0.0339211699
2.210557,0.0338422432
2.211266,0.033703686
2.211975,0.0334929057
2.212685,0.0332396306
2.213395,0.0329901138
2.214106,0.0327743335
2.214817,0.0325898538
2.215528,0.0324144793
2.21624,0.0322345407
2.216952,0.0320618444
2.217665,0.0319247213
2.218379,0.0318375071
2.219092,0.0317781579
2.219806,0.0317023965
2.220521,0.0315797005
2.221236,0.0314172328
2.221952,0.0312531041
2.222668,0.0311206446
2.223384,0.0310145321
2.224101,0.030895128
2.224818,0.0307282584
2.225536,0.0305202099
2.226254,0.0303138523
2.226973,0.0301512427
2.227692,0.0300366327
2.228412,0.029932388
2.229132,0.0297921482
2.229853,0.0296016747
2.230574,0.029388692
2.231295,0.0291934038
2.232017,0.029028814
2.23274,0.0288727393
2.233462,0.0286970001
2.234186,0.0284980414
2.23491,0.0282978859
2.235634,0.0281216066
2.236359,0.0279768061
2.237084,0.0278520903
2.237809,0.0277288255
2.238536,0.027590578
2.239262,0.0274273056
2.239989,0.027240252
2.240717,0.0270442627
2.241445,0.0268613111
2.242173,0.026708005
2.242902,0.0265838045
2.243631,0.0264716254
2.244361,0.0263526615
2.245092,0.0262189979
2.245822,0.0260745157
2.246554,0.0259296055
2.247285,0.0257924784
2.248017,0.0256615775
2.24875,0.0255268049
2.249483,0.0253789097
2.250217,0.0252203345
2.250951,0.0250653764
2.251686,0.0249243007
2.252421,0.0247920341
2.253156,0.0246575895
2.253892,0.0245218029
2.254628,0.0243974719
2.255365,0.0242892561
2.256103,0.0241803964
2.256841,0.0240472761
2.257579,0.0238895249
2.258318,0.0237392878
2.259057,0.023634408
2.259797,0.0235832621
2.260537,0.0235564361
2.261278,0.0235116882
2.262019,0.0234283593
2.262761,0.0233201135
2.263503,0.0232153165
2.264246,0.0231266289
2.264989,0.0230421457
2.265732,0.0229427666
2.266477,0.0228225069
2.267221,0.0226934101
2.267966,0.0225759922
2.268712,0.0224832253
2.269458,0.0224121174
2.270204,0.0223492219
2.270951,0.0222827418
2.271699,0.0222087961
2.272447,0.0221296626
2.273195,0.022048481
2.273944,0.0219653321
2.274694,0.0218776509
2.275444,0.0217840328
2.276194,0.0216878806
2.276945,0.0215959941
2.277696,0.0215122456
2.278448,0.0214338694
2.279201,0.0213541501
2.279954,0.0212681246
2.280707,0.0211773048
2.281461,0.0210892698
2.282215,0.0210110777
2.28297,0.0209420647
2.283725,0.0208752224
2.284481,0.0208049472
2.285237,0.0207324686
2.285994,0.0206651398
2.286752,0.0206071891
2.287509,0.0205491062
2.288268,0.0204704768
2.289026,0.020358016
2.289786,0.0202193388
2.290545,0.0200774411
2.291306,0.0199530984
2.292067,0.0198517144
2.292828,0.0197652691
2.29359,0.0196850038
2.294352,0.0196095947
2.295115,0.0195420525
2.295878,0.0194822866
2.296642,0.0194239051
2.297406,0.0193569021
2.298171,0.0192751266
2.298936,0.0191826458
2.299702,0.0190915108
2.300468,0.0190115924
2.301235,0.0189425892
2.302002,0.018876525
2.30277,0.0188088453
2.303539,0.0187455568
2.304307,0.0186973791
2.305077,0.0186673449
2.305847,0.0186457675
2.306617,0.0186185111
2.307388,0.018580872
2.308159,0.0185421805
2.308931,0.0185163131
2.309703,0.0185071863
2.310476,0.0185032023
2.31125,0.0184865539
2.312024,0.0184493677
2.312798,0.018400653
2.313573,0.0183575476
2.314348,0.0183315378
2.315124,0.0183220266
2.315901,0.0183208778
2.316678,0.0183211642
2.317455,0.0183221159
2.318234,0.0183271595
2.319012,0.0183386193
2.319791,0.0183533572
2.320571,0.0183636398
2.321351,0.0183640109
2.322131,0.0183572824
2.322913,0.0183516972
2.323694,0.0183518573
2.324476,0.0183538882
2.325259,0.0183514278
2.326042,0.0183456184
2.326826,0.018346494
2.32761,0.0183644591
2.328395,0.0184011626
2.32918,0.0184475712
2.329966,0.0184886235
2.330753,0.0185095947
2.33154,0.0185024294
2.332327,0.0184713854
2.333115,0.0184328844
2.333903,0.0184061762
2.334692,0.0184000783
2.335482,0.0184074148
2.336272,0.0184124907
2.337062,0.0184039496
2.337854,0.018380088
2.338645,0.018344809
2.339437,0.0183028662
2.34023,0.0182588458
2.341023,0.0182162558
2.341817,0.0181743097
2.342611,0.0181270213
2.343406,0.0180679175
2.344201,0.0179966847
2.344997,0.017921445
2.345794,0.0178534366
2.346591,0.0177979197
2.347388,0.0177509951
2.348186,0.0177058417
2.348985,0.017659699
2.349784,0.0176140867
2.350583,0.0175697233
2.351384,0.0175222154
2.352184,0.0174644191
2.352986,0.0173938097
2.353787,0.0173158798
2.35459,0.0172388495
2.355393,0.0171660907
2.356196,0.0170945179
2.357,0.0170189297
2.357804,0.0169381896
2.358609,0.0168586295
2.359415,0.0167899194
2.360221,0.0167358552
2.361028,0.0166890893
2.361835,0.0166368453
2.362643,0.0165730456
2.363451,0.016504464
2.36426,0.0164435807
2.365069,0.0163952442
2.365879,0.016352282
2.36669,0.0163048275
2.367501,0.0162513187
2.368312,0.0161977725
2.369125,0.0161476197
2.369937,0.0160957763
2.370751,0.016033875
2.371564,0.0159608705
2.372379,0.0158863296
2.373194,0.0158212049
2.374009,0.0157665193
2.374825,0.0157126571
2.375642,0.0156505617
2.376459,0.0155813621
2.377276,0.0155138065
2.378095,0.0154538248
2.378913,0.0153985527
2.379733,0.015339864
2.380553,0.0152725503
2.381373,0.0151990194
2.382194,0.0151264672
2.383016,0.0150607659
2.383838,0.0150032597
2.384661,0.0149516205
2.385484,0.0149024681
2.386308,0.014852454
2.387132,0.0147974196
2.387957,0.0147325948
2.388783,0.0146555122
2.389609,0.0145684642
2.390435,0.0144781091
2.391263,0.0143930092
2.39209,0.0143205929
2.392919,0.0142640436
2.393748,0.0142198544
2.394577,0.0141781384
2.395407,0.0141279823
2.396238,0.0140655499
2.397069,0.0139969702
2.397901,0.0139325333
2.398733,0.0138785952
2.399566,0.0138339606
2.400399,0.0137926529
2.401233,0.0137489162
2.402068,0.0136996509
2.402903,0.0136435255
2.403739,0.0135799541
2.404575,0.0135101647
2.405412,0.0134385082
2.40625,0.0133717397
2.407088,0.0133154066
2.407926,0.0132696063
2.408766,0.0132289182
2.409606,0.0131873715
2.410446,0.0131431391
2.411287,0.0130981002
2.412128,0.0130532005
2.412971,0.0130058416
2.413813,0.0129522579
2.414657,0.012891398
2.4155,0.0128257007
2.416345,0.012758671
2.41719,0.0126923977
2.418036,0.0126273963
2.418882,0.0125635412
2.419729,0.0125002533
2.420576,0.012437621
2.421424,0.0123786162
2.422272,0.0123281862
2.423122,0.0122874947
2.423971,0.0122492837
2.424822,0.0122020581
2.425673,0.0121408078
2.426524,0.0120723855
2.427376,0.0120079362
2.428229,0.0119514028
2.429082,0.0118974973
2.429936,0.0118403838
2.430791,0.0117812254
2.431646,0.0117256113
2.432501,0.0116753827
2.433358,0.0116254828
2.434214,0.0115691409
2.435072,0.0115042614
2.43593,0.0114347118
2.436789,0.01136659
2.437648,0.0113038541
2.438508,0.011246573
2.439368,0.01119193
2.440229,0.0111370574
2.441091,0.0110824745
2.441953,0.0110323982
2.442816,0.0109894509
2.443679,0.0109495145
2.444543,0.0109043853
2.445408,0.010850526
2.446273,0.0107938789
2.447139,0.0107445293
2.448006,0.0107063498
2.448873,0.0106731279
2.44974,0.0106351185
2.450609,0.0105882855
2.451478,0.0105362257
2.452347,0.0104844242
2.453217,0.010434804
2.454088,0.0103864107
2.454959,0.0103390652
2.455831,0.0102940495
2.456704,0.0102526911
2.457577,0.0102158946
2.458451,0.0101841992
2.459325,0.0101568973
2.4602,0.0101313102
2.461076,0.0101035201
2.461952,0.0100704724
2.462829,0.0100315502
2.463707,0.99881808
2.464585,0.99422186
2.465464,0.9895133
2.466343,0.98494389
2.467223,0.98099624
2.468104,0.97818047
2.468985,0.9765575
2.469867,0.97544811
2.470749,0.97372135
2.471632,0.97058917
2.472516,0.96615037
2.4734,0.96114167
2.474285,0.95624448
2.475171,0.95178309
2.476057,0.94795082
2.476944,0.94497345
2.477832,0.94290794
2.47872,0.94142903
2.479608,0.94003408
2.480498,0.93847918
2.481388,0.93682536
2.482278,0.93504418
2.48317,0.93281838
2.484062,0.92987357
2.484954,0.92635173
2.485847,0.92269246
2.486741,0.91921043
2.487636,0.9159213
2.488531,0.91279131
2.489427,0.90996429
2.490323,0.90762182
2.49122,0.90567159
2.492118,0.9037334
2.493016,0.90146238
2.493915,0.89880963
2.494814,0.89593301
2.495715,0.8928943
2.496615,0.88960645
2.497517,0.88614388
2.498419,0.88302089
2.499322,0.88100055
2.500225,0.88054608
2.501129,0.88149291
2.502034,0.88322677
2.502939,0.88506803
2.503845,0.8864043
2.504752,0.8866651
2.505659,0.88561576
2.506567,0.8838318
2.507476,0.88257589
2.508385,0.88284954
2.509295,0.88462253
2.510206,0.88721111
2.511117,0.89033291
2.512029,0.89437499
2.512942,0.89941748
2.513855,0.90442973
2.514769,0.90799756
2.515683,0.90977824
2.516598,0.91065393
2.517514,0.91146752
2.518431,0.91238408
2.519348,0.91374318
2.520266,0.91676185
2.521184,0.92255625
2.522103,0.93054011
2.523023,0.93834844
2.523944,0.94368827
2.524865,0.94613271
2.525787,0.94707458
2.526709,0.94871584
2.527632,0.95349669
2.528556,0.9634065
2.52948,0.97838068
2.530406,0.99510555
2.531331,0.0100869845
2.532258,0.0101696085
2.533185,0.0102219798
2.534113,0.0102740401
2.535041,0.0103142503
2.535971,0.0102952236
2.5369,0.0101970241
2.537831,0.0100742493
2.538762,0.0100232409
2.539694,0.0101089688
2.540627,0.0103157969
2.54156,0.0105406104
2.542494,0.0106533568
2.543428,0.0106153825
2.544364,0.010516261
2.5453,0.0104645553
2.546236,0.0104845052
2.547174,0.0105272596
2.548112,0.0105597451
2.54905,0.0106168762
2.54999,0.0107413527
2.55093,0.0108885553
2.55187,0.0109272038
2.552812,0.0107695573
2.553754,0.0104763273
2.554697,0.0101849803
2.55564,0.99973716
2.556585,0.99702501
2.557529,0.010154512
2.558475,0.0106032506
2.559421,0.0113312763
2.560368,0.0122330158
2.561316,0.0130001214
2.562264,0.0132109694
2.563213,0.0127115759
2.564163,0.0118336494
2.565113,0.0110545645
2.566065,0.0106370187
2.567016,0.0106016998
2.567969,0.0108073618
2.568922,0.0110357506
2.569876,0.0111544739
2.570831,0.0112216128
2.571786,0.0113488183
2.572742,0.0115254284
2.573699,0.0116261875
2.574656,0.0115615339
2.575615,0.0113608678
2.576573,0.0110964037
2.577533,0.0108245681
2.578493,0.0106246771
2.579454,0.0106140198
2.580416,0.0108852196
2.581378,0.0114155699
2.582342,0.0119885178
2.583305,0.012268066
2.58427,0.0121355024
2.585235,0.0118214924
2.586201,0.0115692778
2.587168,0.0113779776
2.588135,0.0110832635
2.589103,0.0106515926
2.590072,0.0103423383
2.591042,0.0105430568
2.592012,0.0116651978
2.592983,0.0141535776
2.593955,0.017496512
2.594927,0.0179676947
2.5959,0.0146860674
2.596874,0.0117474824
2.597849,0.0102565183
2.598824,0.97465237
2.5998,0.97900854
2.600777,0.0101292573
2.601755,0.0106518148
2.602733,0.0113495183
2.603712,0.0121501444
2.604692,0.0127241291
2.605672,0.0126542127
2.606653,0.0119889155
2.607635,0.011198158
2.608618,0.0106064062
2.609601,0.0102414217
2.610585,0.9999286
2.61157,0.98187733
2.612556,0.97575117
2.613542,0.99288307
2.614529,0.0103805485
2.615517,0.0109960567
2.616505,0.0114997508
2.617495,0.0116884631
2.618485,0.0115979728
2.619475,0.0112874086
2.620467,0.0107231203
2.621459,0.0100098294
2.622452,0.94359635
2.623446,0.92152253
2.62444,0.93684257
2.625435,0.9753614
2.626431,0.0101489597
2.627428,0.0104422432
2.628426,0.0106969578
2.629424,0.0109234438
2.630423,0.0109292276
2.631423,0.0105582657
2.632423,0.99683962
2.633424,0.94261782
2.634426,0.90332393
2.635429,0.87549819
2.636432,0.8549734
2.637437,0.84217769
2.638442,0.83850988
2.639447,0.84177144
2.640454,0.84679866
2.641461,0.85042531
2.642469,0.85436472
2.643478,0.86139338
2.644488,0.86912903
2.645498,0.86934244
2.646509,0.85646183
2.647521,0.83660371
2.648534,0.82334719
2.649547,0.82630236
2.650561,0.84533203
2.651576,0.870339
2.652592,0.88604209
2.653609,0.88306034
2.654626,0.86544338
2.655644,0.84552574
2.656663,0.83453742
2.657682,0.83714242
2.658703,0.84891588
2.659724,0.85859247
2.660746,0.86112383
2.661768,0.8702464
2.662792,0.91054059
2.663816,0.99918606
2.664841,0.0112212071
2.665867,0.0121317383
2.666894,0.0122666408
2.667921,0.0121470932
2.668949,0.0122580549
2.669978,0.0122359678
2.671008,0.0114071707
2.672038,0.0101054411
2.67307,0.91933654
2.674102,0.90018444
2.675135,0.94896471
2.676168,0.0103723784
2.677203,0.0109557534
2.678238,0.0106384121
2.679274,0.97601239
2.680311,0.89618899
2.681349,0.84876416
2.682387,0.8305738
2.683426,0.82932692
2.684467,0.83060363
2.685507,0.82346966
2.686549,0.80511514
2.687591,0.77981575
2.688635,0.75543197
2.689679,0.74172094
2.690724,0.74867698
2.691769,0.78312277
2.692816,0.84101147
2.693863,0.89369827
2.694911,0.89612657
2.69596,0.84436516
2.69701,0.78333108
2.69806,0.74672201
2.699112,0.73988827
2.700164,0.75195058
2.701217,0.76439662
2.70227,0.76267187
2.703325,0.7480096
2.70438,0.73302253
2.705437,0.73031069
2.706494,0.75023551
2.707552,0.803339
2.70861,0.89581677
2.70967,0.0100514181
2.71073,0.0105394434
2.711791,0.99114239
2.712853,0.88239629
2.713916,0.80071849
2.71498,0.76461634
2.716044,0.77226286
2.717109,0.82624548
2.718175,0.93726292
2.719242,0.0110634724
2.72031,0.0127699567
2.721379,0.0134336945
2.722448,0.0129794018
2.723518,0.0121627457
2.724589,0.0111896569
2.725661,0.99136604
2.726734,0.8552839
2.727808,0.74938718
2.728882,0.68580622
2.729958,0.65690191
2.731034,0.65272672
2.732111,0.66683487
2.733188,0.69251594
2.734267,0.71729919
2.735347,0.7313537
2.736427,0.74772898
2.737508,0.80091311
2.73859,0.92317787
2.739673,0.0108843174
2.740757,0.0111756739
2.741841,0.92885172
2.742927,0.72627369
2.744013,0.60484498
2.7451,0.5450003
2.746188,0.51831001
2.747277,0.5067518
2.748367,0.50086922
2.749457,0.49739772
2.750549,0.49896633
2.751641,0.51523355
2.752734,0.5623649
2.753828,0.65704363
2.754923,0.7812252
2.756019,0.81638984
2.757115,0.70208852
2.758213,0.57438773
2.759311,0.50893079
2.76041,0.5016661
2.76151,0.53543781
2.762611,0.58260834
2.763713,0.60453763
2.764816,0.59090696
2.765919,0.56919726
2.767024,0.56310984
2.768129,0.57741609
2.769235,0.60236268
2.770342,0.61656385
2.77145,0.60056206
2.772559,0.55951723
2.773669,0.51728737
2.774779,0.49075766
2.775891,0.48280655
2.777003,0.48853838
2.778116,0.50135686
2.77923,0.51623302
2.780345,0.5287842
2.781461,0.53413348
2.782578,0.53308582
2.783696,0.53823578
2.784814,0.56715448
2.785934,0.62734808
2.787054,0.69268801
2.788175,0.69866713
2.789297,0.63049251
2.79042,0.55081482
2.791544,0.50061593
2.792669,0.48051877
2.793795,0.4780009
2.794922,0.48053622
2.796049,0.48064776
2.797178,0.47785847
2.798307,0.47871439
2.799437,0.49592473
2.800568,0.54619635
2.8017,0.6432116
2.802833,0.76593312
2.803967,0.81934794
2.805102,0.74840991
2.806238,0.63673894
2.807374,0.55750808
2.808512,0.51667529
2.80965,0.49825435
2.810789,0.48988772
2.81193,0.48851331
2.813071,0.49492021
2.814213,0.5063753
2.815356,0.51743651
2.8165,0.5279408
2.817645,0.5448181
2.818791,0.57161306
2.819937,0.5965549
2.821085,0.59671864
2.822233,0.56610047
2.823383,0.52632492
2.824533,0.49969973
2.825685,0.49218777
2.826837,0.49699862
2.82799,0.50277801
2.829144,0.50315839
2.830299,0.50160738
2.831455,0.50590675
2.832612,0.52039166
2.83377,0.54323939
2.834929,0.567693
2.836089,0.58507334
2.83725,0.58832003
2.838411,0.57536249
2.839574,0.55099051
2.840737,0.52428024
2.841902,0.5027222
2.843067,0.48905842
2.844234,0.48287226
2.845401,0.48349602
2.846569,0.49037975
2.847739,0.50067498
2.848909,0.50839913
2.85008,0.50960538
2.851252,0.50826953
2.852425,0.51240804
2.853599,0.52393279
2.854774,0.53368159
2.85595,0.52892586
2.857127,0.50882207
2.858305,0.48539742
2.859484,0.46881424
2.860664,0.45989827
2.861844,0.4543436
2.863026,0.44955838
2.864209,0.44663934
2.865392,0.44683884
2.866577,0.44876765
2.867763,0.45019094
2.868949,0.45124633
2.870137,0.45371009
2.871325,0.4569838
2.872515,0.45676914
2.873705,0.44941703
2.874897,0.43685269
2.876089,0.42470467
2.877283,0.4165287
2.878477,0.41167474
2.879673,0.40769917
2.880869,0.40350511
2.882066,0.39978013
2.883265,0.39712585
2.884464,0.39498156
2.885664,0.3925228
2.886866,0.38973969
2.888068,0.38702446
2.889271,0.38417394
2.890476,0.38045792
2.891681,0.37547328
2.892887,0.3693775
2.894095,0.36251449
2.895303,0.35561136
2.896512,0.35039483
2.897723,0.34914353
2.898934,0.3527965
2.900146,0.35914164
2.90136,0.36323398
2.902574,0.3610061
2.903789,0.35288445
2.905006,0.34269727
2.906223,0.33366017
2.907441,0.32648898
2.908661,0.32038025
2.909881,0.31459215
2.911103,0.308999
2.912325,0.30371773
2.913549,0.29869094
2.914773,0.29369635
2.915999,0.28861739
2.917225,0.28368661
2.918453,0.27957935
2.919681,0.27711175
2.920911,0.27646633
2.922142,0.27653382
2.923373,0.27526391
2.924606,0.27118197
2.92584,0.2647239
2.927075,0.2577972
2.92831,0.25207973
2.929547,0.24793217
2.930785,0.24461646
2.932024,0.2411991
2.933264,0.23729061
2.934505,0.23314092
2.935747,0.22929007
2.93699,0.22621392
2.938234,0.22407599
2.939479,0.22258613
2.940726,0.22110001
2.941973,0.21899433
2.943221,0.21609747
2.944471,0.21279974
2.945721,0.20962969
2.946973,0.20669357
2.948225,0.20362358
2.949479,0.20009848
2.950733,0.1963514
2.951989,0.19303882
2.953246,0.19055547
2.954504,0.18859446
2.955763,0.18647338
2.957023,0.18380557
2.958284,0.18075493
2.959546,0.1777153
2.960809,0.17489822
2.962073,0.17226719
2.963339,0.16976334
2.964605,0.16746265
2.965873,0.16548915
2.967141,0.16386192
2.968411,0.16248118
2.969681,0.16120297
2.970953,0.15990241
2.972226,0.15851903
2.9735,0.15705322
2.974775,0.15552077
2.976051,0.15393684
2.977328,0.1523253
2.978607,0.15071478
2.979886,0.14912729
2.981167,0.14756093
2.982448,0.14598914
2.983731,0.14440314
2.985015,0.14285979
2.9863,0.14148145
2.987586,0.14040056
2.988873,0.13965763
2.990161,0.1391412
2.99145,0.13867022
2.99274,0.13812678
2.994032,0.13751208
2.995324,0.13689732
2.996618,0.13631723
2.997913,0.13571535
2.999209,0.13501926
3.000506,0.13426102
3.001804,0.13359578
3.003103,0.13318338
3.004404,0.13304623
3.005705,0.13303699
3.007008,0.13295414
3.008312,0.13270107
3.009616,0.13234728
3.010922,0.1320547
3.01223,0.1319458
3.013538,0.13200844
3.014847,0.13211394
3.016158,0.13213553
3.017469,0.13205237
3.018782,0.1319446
3.020096,0.13190434
3.021411,0.13194261
3.022727,0.1319589
3.024044,0.13180665
3.025363,0.13142657
3.026683,0.13094889
3.028003,0.13065661
3.029325,0.13078277
3.030648,0.13127972
3.031972,0.13179202
3.033298,0.13191282
3.034624,0.13150709
3.035952,0.13079908
3.037281,0.13014527
3.038611,0.12972827
3.039942,0.12947878
3.041274,0.12925749
3.042607,0.12903883
3.043942,0.1288773
3.045278,0.12875118
3.046615,0.12853048
3.047953,0.12811132
3.049292,0.12754742
3.050632,0.12702011
3.051974,0.12666366
3.053317,0.12643869
3.054661,0.12618347
3.056006,0.12576321
3.057352,0.1251809
3.0587,0.12458135
3.060048,0.12415039
3.061398,0.1239853
3.062749,0.12402237
3.064101,0.12406441
3.065455,0.12390703
3.066809,0.12348047
3.068165,0.1228925
3.069522,0.12232816
3.07088,0.12188746
3.072239,0.12151798
3.0736,0.1211082
3.074962,0.12062439
3.076325,0.12013791
3.077689,0.11973493
3.079054,0.11942072
3.080421,0.11911553
3.081788,0.11874073
3.083157,0.11831106
3.084527,0.11792614
3.085899,0.11765375
3.087271,0.11744309
3.088645,0.11717257
3.09002,0.11676424
3.091396,0.11624008
3.092774,0.11567977
3.094153,0.11515014
3.095532,0.11469354
3.096914,0.11435388
3.098296,0.11415273
3.099679,0.11402514
3.101064,0.11382331
3.10245,0.11342475
3.103837,0.11283319
3.105226,0.11215895
3.106616,0.11151689
3.108007,0.11096236
3.109399,0.11049998
3.110792,0.11011258
3.112187,0.10976007
3.113583,0.10936827
3.11498,0.10886512
3.116378,0.10824335
3.117778,0.10756274
3.119179,0.10688737
3.120581,0.10624365
3.121985,0.10564838
3.123389,0.10515019
3.124795,0.10480348
3.126202,0.10459324
3.127611,0.10440739
3.12902,0.10410568
3.130431,0.10362239
3.131844,0.10300435
3.133257,0.10236428
3.134672,0.10180992
3.136088,0.10139143
3.137505,0.10108302
3.138924,0.10080343
3.140344,0.10047886
3.141765,0.10011632
3.143187,0.09981389
3.144611,0.09966106
3.146036,0.09962355
3.147462,0.09955392
3.14889,0.09932767
3.150319,0.09895773
3.151749,0.09856656
3.15318,0.09825826
3.154613,0.09803127
3.156047,0.09780718
3.157482,0.0975207
3.158919,0.09716751
3.160357,0.09678687
3.161796,0.09642616
3.163236,0.09612106
3.164678,0.09588819
3.166121,0.09571568
3.167566,0.09556541
3.169011,0.09539798
3.170458,0.09518318
3.171907,0.09489029
3.173356,0.09451883
3.174807,0.09416555
3.17626,0.09401429
3.177713,0.0941851
3.179168,0.09455894
3.180624,0.09479424
3.182082,0.09457805
3.183541,0.09386954
3.185001,0.09290003
3.186463,0.09198356
3.187926,0.09134386
3.18939,0.09106744
3.190856,0.09112374
3.192323,0.09136543
3.193791,0.09154338
3.19526,0.09143381
3.196731,0.09102244
3.198204,0.090537
3.199677,0.09025041
3.201152,0.09024112
3.202629,0.09034439
3.204106,0.09032625
3.205585,0.09010211
3.207066,0.08980126
3.208548,0.0896525
3.210031,0.0898223
3.211515,0.09033153
3.213001,0.09106635
3.214488,0.09182057
3.215977,0.09233817
3.217467,0.09239764
3.218958,0.09195071
3.220451,0.09121564
3.221945,0.09057707
3.223441,0.09030846
3.224938,0.09036415
3.226436,0.09046286
3.227936,0.09038567
3.229437,0.09017708
3.230939,0.0900598
3.232443,0.09017915
3.233948,0.09045638
3.235455,0.09068716
3.236963,0.09075488
3.238472,0.0907359
3.239983,0.09081341
3.241495,0.0911057
3.243008,0.09157356
3.244523,0.09207795
3.24604,0.0925111
3.247558,0.092864
3.249077,0.09316974
3.250598,0.09341489
3.25212,0.09352776
3.253643,0.09342205
3.255168,0.09301209
3.256694,0.0921974
3.258222,0.09089202
3.259751,0.08911994
3.261282,0.08708965
3.262814,0.08515014
3.264347,0.08363291
3.265882,0.08269114
3.267418,0.08224719
3.268956,0.08206414
3.270495,0.08187906
3.272036,0.08154183
3.273578,0.08110327
3.275122,0.08077642
3.276667,0.08076604
3.278213,0.08110611
3.279761,0.08166021
3.28131,0.08226778
3.282861,0.08287006
3.284413,0.08349104
3.285967,0.08412943
3.287522,0.0847181
3.289079,0.08520989
3.290637,0.08567748
3.292196,0.08627679
3.293757,0.08708174
3.29532,0.08796022
3.296884,0.08863817
3.298449,0.08891158
3.300016,0.08881834
3.301585,0.08861285
3.303155,0.08855657
3.304726,0.08871136
3.306299,0.08892375
3.307873,0.08899752
3.309449,0.08887941
3.311026,0.08869445
3.312605,0.08861934
3.314185,0.08873227
3.315767,0.08898023
3.317351,0.08926371
3.318936,0.08952901
3.320522,0.08979039
3.32211,0.09010117
3.323699,0.09052072
3.32529,0.09107657
3.326882,0.0917157
3.328476,0.09229007
3.330072,0.09263079
3.331669,0.09267771
3.333267,0.09254088
3.334867,0.09242053
3.336469,0.09245863
3.338072,0.09266776
3.339676,0.09298382
3.341282,0.09335424
3.34289,0.09376174
3.344499,0.09419651
3.34611,0.09464424
3.347722,0.09509868
3.349336,0.09555492
3.350952,0.09597882
3.352569,0.0963076
3.354187,0.09651079
3.355807,0.09664672
3.357429,0.09684003
3.359052,0.09719121
3.360677,0.0977071
3.362303,0.09831291
3.363931,0.09892116
3.36556,0.09949075
3.367191,0.10003194
3.368824,0.10056762
3.370458,0.10108915
3.372093,0.10154159
3.373731,0.1018493
3.37537,0.10196228
3.37701,0.10188283
3.378652,0.10165233
3.380296,0.10132132
3.381941,0.10093315
3.383588,0.10052043
3.385236,0.10009604
3.386886,0.09964946
3.388538,0.09916758
3.390191,0.09866595
3.391846,0.09819058
3.393502,0.09777766
3.39516,0.09741087
3.39682,0.0970308
3.398481,0.09659325
3.400144,0.09611001
3.401809,0.09561377
3.403475,0.09507874
3.405143,0.09439037
3.406812,0.09342159
3.408483,0.09215718
3.410156,0.09074874
3.41183,0.08943458
3.413506,0.08839051
3.415183,0.08765089
3.416862,0.08716366
3.418543,0.0868962
3.420226,0.08685769
3.42191,0.08702349
3.423596,0.0872847
3.425283,0.08750831
3.426972,0.08764541
3.428663,0.08776233
3.430355,0.08795815
3.432049,0.08826421
3.433745,0.08864441
3.435442,0.08908563
3.437141,0.08965229
3.438842,0.09042556
3.440545,0.09138357
3.442249,0.09236167
3.443954,0.09315382
3.445662,0.09367355
3.447371,0.09402802
3.449082,0.09443784
3.450794,0.09507152
3.452509,0.09593878
3.454224,0.09692364
3.455942,0.09790858
3.457661,0.09886901
3.459382,0.09986078
3.461105,0.10093498
3.462829,0.10207585
3.464556,0.10322208
3.466283,0.10433527
3.468013,0.10543715
3.469744,0.10658134
3.471477,0.10780406
3.473212,0.10911584
3.474948,0.11053649
3.476686,0.11211976
3.478426,0.11392967
3.480168,0.11600295
3.481911,0.11835254
3.483656,0.12100762
3.485403,0.12402759
3.487152,0.12744589
3.488902,0.13119193
3.490654,0.13508317
3.492408,0.13891487
3.494164,0.14256176
3.495921,0.14599903
3.49768,0.14923968
3.499441,0.15227422
3.501204,0.15507442
3.502968,0.15763448
3.504734,0.15997206
3.506502,0.16207836
3.508272,0.16388599
3.510043,0.16530867
3.511817,0.16631868
3.513592,0.16697446
3.515368,0.16737985
3.517147,0.1676287
3.518927,0.16778038
3.52071,0.16785797
3.522494,0.16785592
3.52428,0.16778663
3.526067,0.16775819
3.527857,0.1680023
3.529648,0.16876615
3.531441,0.17012314
3.533236,0.17188197
3.535032,0.17370359
3.536831,0.17532281
3.538631,0.17667587
3.540433,0.1778515
3.542237,0.17895946
3.544043,0.18005175
3.545851,0.18113292
3.54766,0.18219606
3.549471,0.18323389
3.551284,0.18423704
3.553099,0.18520121
3.554916,0.18613571
3.556735,0.18705553
3.558555,0.18796419
3.560378,0.18885279
3.562202,0.18971204
3.564028,0.19053884
3.565856,0.19133352
3.567686,0.19209738
3.569518,0.19284188
3.571351,0.19358734
3.573187,0.19434366
3.575024,0.1950948
3.576863,0.19581609
3.578704,0.19650707
3.580547,0.19719793
3.582392,0.19791613
3.584239,0.19865349
3.586088,0.19937395
3.587938,0.2000561
3.589791,0.20071928
3.591645,0.20140453
3.593501,0.2021292
3.595359,0.2028666
3.59722,0.20357014
3.599082,0.20421924
3.600946,0.20484081
3.602811,0.20548308
3.604679,0.20617001
3.606549,0.20687928
3.608421,0.20756795
3.610294,0.20821674
3.61217,0.20884722
3.614047,0.20949668
3.615926,0.21018524
3.617808,0.21090374
3.619691,0.211625
3.621576,0.2123192
3.623463,0.21296657
3.625353,0.21356708
3.627244,0.21414199
3.629137,0.21471634
3.631032,0.21529686
3.632929,0.21586949
3.634828,0.21642274
3.636729,0.21696346
3.638632,0.21750846
3.640537,0.21806507
3.642444,0.218635
3.644353,0.21923145
3.646263,0.21987646
3.648176,0.22056784
3.650091,0.22125751
3.652008,0.22187868
3.653927,0.22240082
3.655848,0.22285638
3.657771,0.22330909
3.659696,0.22379818
3.661623,0.22431225
3.663552,0.224814
3.665483,0.22527821
3.667416,0.22570162
3.669351,0.22608619
3.671288,0.2264266
3.673227,0.22672392
3.675168,0.22700595
3.677111,0.22732201
3.679057,0.22770324
3.681004,0.22812423
3.682953,0.22850747
3.684905,0.22877789
3.686858,0.22892251
3.688814,0.2290008
3.690771,0.22908734
3.692731,0.22920136
3.694693,0.22929256
3.696656,0.22929685
3.698622,0.22919681
3.70059,0.22901852
3.70256,0.2287714
3.704532,0.22841122
3.706507,0.22786584
3.708483,0.2270834
3.710461,0.22603955
3.712442,0.22470148
3.714425,0.22300895
3.716409,0.22090323
3.718396,0.21836728
3.720385,0.21542268
3.722376,0.2120955
3.72437,0.20840325
3.726365,0.20438133
3.728362,0.20011411
3.730362,0.19572893
3.732364,0.19135824
3.734368,0.18710458
3.736374,0.18302946
3.738382,0.17915881
3.740392,0.17548756
3.742405,0.17198054
3.744419,0.16858823
3.746436,0.16527445
3.748455,0.1620392
3.750476,0.15890593
3.752499,0.15588571
3.754525,0.15295615
3.756553,0.15008146
3.758582,0.14724776
3.760614,0.14446917
3.762649,0.14176329
3.764685,0.13912891
3.766724,0.13655622
3.768764,0.13404805
3.770807,0.13162214
3.772853,0.12929357
3.7749,0.12706937
3.77695,0.12496538
3.779001,0.12301785
3.781056,0.12126933
3.783112,0.11974075
3.78517,0.11842331
3.787231,0.1172953
3.789294,0.11633985
3.791359,0.11554498
3.793427,0.11489255
3.795496,0.114357
3.797568,0.11391737
3.799643,0.11356448
3.801719,0.11329224
3.803798,0.11308268
3.805879,0.11290385
3.807962,0.11272328
3.810048,0.11252135
3.812135,0.11228796
3.814225,0.11200828
3.816318,0.11166197
3.818412,0.11124156
3.820509,0.11076736
3.822609,0.11027704
3.82471,0.10979726
3.826814,0.10932796
3.82892,0.10885045
3.831029,0.10834964
3.833139,0.10782285
3.835252,0.10727525
3.837368,0.10671497
3.839486,0.10615178
3.841606,0.10559489
3.843728,0.1050469
3.845853,0.10450487
3.84798,0.10397363
3.850109,0.10347696
3.852241,0.10304823
3.854375,0.10270742
3.856512,0.10244542
3.85865,0.10222659
3.860792,0.10200289
3.862935,0.10172564
3.865081,0.10134956
3.867229,0.10083454
3.86938,0.10014666
3.871533,0.09925379
3.873689,0.09812403
3.875846,0.09674207
3.878007,0.09513851
3.880169,0.09339791
3.882334,0.09162617
3.884502,0.08989874
3.886672,0.08824028
3.888844,0.08665064
3.891019,0.08514337
3.893196,0.0837511
3.895375,0.08249761
3.897557,0.08137532
3.899742,0.08035625
3.901929,0.07942132
3.904118,0.07857561
3.90631,0.07783612
3.908504,0.0772084
3.9107,0.07667453
3.9129,0.07620285
3.915101,0.07576781
3.917305,0.07536403
3.919512,0.07500248
3.921721,0.07469378
3.923932,0.07443506
3.926146,0.07421369
3.928363,0.07402113
3.930581,0.07386078
3.932803,0.0737416
3.935027,0.07367051
3.937253,0.07365538
3.939482,0.07371163
3.941714,0.07385869
3.943948,0.07411041
3.946184,0.07447306
3.948423,0.07495529
3.950665,0.0755795
3.952909,0.07638418
3.955156,0.07741767
3.957405,0.07873408
3.959657,0.08039201
3.961911,0.08244949
3.964168,0.08495066
3.966427,0.08791013
3.968689,0.09130753
3.970954,0.09509513
3.973221,0.09920835
3.975491,0.10357153
3.977763,0.10810053
3.980038,0.11271093
3.982315,0.11733281
3.984595,0.12192311
3.986878,0.12646831
3.989163,0.13098101
3.991451,0.13549363
3.993742,0.1400457
3.996035,0.14466336
3.99833,0.14934291
4.000629,0.15405517
4.00293,0.15876607
4.005233,0.1634494
4.00754,0.16807982
4.009849,0.17262195
4.01216,0.1770388
4.014475,0.18130891
4.016791,0.18542517
4.019111,0.18937277
4.021433,0.19311697
4.023758,0.19662222
4.026086,0.19987971
4.028416,0.2029053
4.030749,0.20571157
4.033085,0.20829606
4.035423,0.21066477
4.037764,0.21285756
4.040108,0.21493399
4.042454,0.21692777
4.044804,0.21882506
4.047155,0.22059194
4.04951,0.2222181
4.051867,0.22372771
4.054228,0.22515369
4.05659,0.22651359
4.058956,0.22781049
4.061324,0.22904402
4.063695,0.23020919
4.066069,0.23129035
4.068446,0.2322672
4.070825,0.23313275
4.073207,0.2339016
4.075592,0.23459742
4.07798,0.23523738
4.080371,0.23582881
4.082764,0.23637445
4.08516,0.23687603
4.087559,0.23733082
4.089961,0.23772943
4.092365,0.23806006
4.094773,0.23831967
4.097183,0.23852006
4.099596,0.23868225
4.102012,0.2388205
4.10443,0.23892876
4.106852,0.23898899
4.109276,0.23899361
4.111703,0.23896047
4.114133,0.23892285
4.116566,0.23890388
4.119002,0.23890075
4.121441,0.23889208
4.123882,0.23886056
4.126327,0.23880689
4.128774,0.23874981
4.131224,0.23871074
4.133677,0.23870168
4.136133,0.23872307
4.138592,0.23876774
4.141054,0.23882435
4.143519,0.23887901
4.145987,0.23892206
4.148457,0.23895116
4.150931,0.23896898
4.153407,0.23897631
4.155887,0.23897389
4.158369,0.23897017
4.160854,0.23898005
4.163343,0.23900458
4.165834,0.23901928
4.168328,0.23898899
4.170826,0.23890244
4.173326,0.23878512
4.175829,0.23868154
4.178335,0.23863113
4.180844,0.23867039
4.183356,0.23885774
4.185872,0.23930163
4.18839,0.24017942
4.190911,0.24175968
4.193435,0.24443232
4.195963,0.24873204
4.198493,0.25532996
4.201026,0.26500125
4.203563,0.27860755
4.206102,0.29715089
4.208645,0.32191257
4.21119,0.35465335
4.213739,0.39784014
4.216291,0.4549575
4.218846,0.53103698
4.221404,0.63328204
4.223965,0.77086428
4.226529,0.95181132
4.229096,0.0117395925
4.231666,0.0140812045
4.23424,0.0158761161
4.236816,0.0164787927
4.239396,0.0157376814
4.241979,0.0136958998
4.244565,0.0109479164
4.247154,0.82620449
4.249746,0.61568738
4.252341,0.47770583
4.25494,0.40029232
4.257542,0.36686518
4.260146,0.3669448
4.262754,0.39616992
4.265366,0.4503267
4.26798,0.51510329
4.270598,0.56518968
4.273219,0.58661399
4.275843,0.587093
4.27847,0.57804776
4.2811,0.56518902
4.283734,0.55178566
4.286371,0.53961309
4.289011,0.52704507
4.291655,0.51033279
4.294301,0.4882222
4.296951,0.46386429
4.299604,0.44144518
4.302261,0.42250517
4.30492,0.40562244
4.307583,0.38847209
4.31025,0.37007137
4.312919,0.35144441
4.315592,0.33447499
4.318268,0.32042432
4.320948,0.30935341
4.323631,0.30044154
4.326317,0.29267031
4.329006,0.28539128
4.331699,0.27847978
4.334395,0.27211834
4.337095,0.26650115
4.339797,0.26169157
4.342504,0.25763931
4.345213,0.25424032
4.347926,0.25137118
4.350642,0.24890007
4.353362,0.24670437
4.356085,0.24469614
4.358811,0.24283738
4.361541,0.24112471
4.364275,0.23955676
4.367011,0.23811118
4.369751,0.23675272
4.372495,0.23546886
4.375242,0.2343015
4.377992,0.23333998
4.380746,0.23266706
4.383504,0.23230135
4.386264,0.23217689
4.389029,0.232183
4.391796,0.23222835
4.394567,0.23227383
4.397342,0.23231655
4.40012,0.23235473
4.402902,0.23237134
4.405687,0.23235165
4.408476,0.23230157
4.411268,0.23224147
4.414064,0.23218422
4.416863,0.23212667
4.419666,0.23206177
4.422472,0.23199309
4.425282,0.23192859
4.428096,0.23186287
4.430913,0.23178375
4.433734,0.23169266
4.436558,0.23161058
4.439386,0.23155555
4.442217,0.23152492
4.445052,0.2315062
4.447891,0.23149225
4.450733,0.23147191
4.453579,0.23141068
4.456428,0.23127079
4.459281,0.23106504
4.462138,0.23087827
4.464998,0.23080402
4.467863,0.2308502
4.47073,0.23091746
4.473602,0.23087998
4.476477,0.23068977
4.479355,0.23039858
4.482238,0.23009456
4.485124,0.22982848
4.488014,0.22959632
4.490908,0.22936634
4.493805,0.22911127
4.496706,0.22881838
4.499611,0.22848302
4.502519,0.22810248
4.505431,0.22767832
4.508347,0.22722413
4.511267,0.22676184
4.514191,0.2263014
4.517118,0.22582012
4.520049,0.2252713
4.522984,0.22462732
4.525923,0.22391364
4.528865,0.22319292
4.531812,0.22251305
4.534762,0.22187145
4.537716,0.22123135
4.540674,0.22057064
4.543635,0.21990483
4.546601,0.219266
4.54957,0.21867547
4.552543,0.21814072
4.555521,0.21766936
4.558502,0.21728153
4.561487,0.21699674
4.564475,0.21681704
4.567468,0.21673204
4.570465,0.2167299
4.573465,0.21679584
4.57647,0.21691459
4.579478,0.21708238
4.582491,0.21731623
4.585507,0.2176432
4.588527,0.21808001
4.591551,0.21863139
4.59458,0.21930834
4.597612,0.22013635
4.600648,0.22113712
4.603688,0.22230811
4.606732,0.22362652
4.609781,0.22506586
4.612833,0.2265971
4.615889,0.22818756
4.618949,0.22981804
4.622014,0.2314992
4.625082,0.23325188
4.628155,0.23506314
4.631231,0.23687316
4.634312,0.23861807
4.637397,0.24028236
4.640485,0.24189197
4.643578,0.24346653
4.646675,0.2449896
4.649777,0.24642901
4.652882,0.24776688
4.655991,0.24900267
4.659105,0.25013903
4.662223,0.25118069
4.665345,0.25215325
4.668471,0.25310989
4.671601,0.25409977
4.674735,0.25512537
4.677874,0.25613316
4.681017,0.25705468
4.684164,0.2578655
4.687315,0.25860226
4.690471,0.25932475
4.69363,0.26007022
4.696794,0.26084476
4.699962,0.26164124
4.703135,0.26244417
4.706312,0.26321623
4.709493,0.26390674
4.712678,0.26449593
4.715868,0.26503053
4.719062,0.26559083
4.72226,0.26621554
4.725463,0.2668625
4.728669,0.26745346
4.731881,0.26795642
4.735096,0.26841565
4.738316,0.26890227
4.741541,0.26944289
4.744769,0.27000141
4.748002,0.27052419
4.75124,0.27099316
4.754482,0.27143481
4.757728,0.27188608
4.760979,0.27235356
4.764234,0.27280841
4.767494,0.27322263
4.770758,0.27360656
4.774026,0.27400309
4.777299,0.27443845
4.780577,0.27488609
4.783859,0.27528421
4.787145,0.27559838
4.790436,0.27586267
4.793732,0.276146
4.797032,0.2764869
4.800336,0.2768655
4.803645,0.27723834
4.806959,0.27759036
4.810277,0.27794866
4.8136,0.2783501
4.816927,0.27879375
4.820259,0.2792263
4.823596,0.27958614
4.826937,0.27987019
4.830283,0.28015313
4.833633,0.28052157
4.836988,0.28097975
4.840348,0.28142889
4.843712,0.28175326
4.847081,0.2819232
4.850455,0.2820047
4.853833,0.28208165
4.857216,0.28218845
4.860604,0.28231647
4.863996,0.28245227
4.867393,0.28259138
4.870795,0.2827268
4.874202,0.28284977
4.877613,0.28296691
4.88103,0.28310394
4.884451,0.28329507
4.887876,0.28356599
4.891307,0.2839204
4.894742,0.28431943
4.898182,0.28467554
4.901627,0.28488431
4.905077,0.28489058
4.908532,0.2847457
4.911991,0.28459418
4.915456,0.28458061
4.918925,0.28474781
4.922399,0.28502027
4.925878,0.2852966
4.929362,0.28555414
4.932851,0.28584613
4.936345,0.28619283
4.939844,0.28651185
4.943347,0.28669028
4.946856,0.28672299
4.95037,0.28672381
4.953888,0.28678207
4.957412,0.28685004
4.960941,0.28681518
4.964474,0.28666052
4.968013,0.28651002
4.971556,0.28650564
4.975105,0.28665284
4.978659,0.2868104
4.982218,0.28683138
4.985782,0.28669639
4.989351,0.28650136
4.992925,0.28632522
4.996504,0.28613511
5.000088,0.28584316
5.003678,0.28547161
5.007272,0.28521329
5.010872,0.28525654
5.014477,0.28551812
5.018087,0.28558744
5.021703,0.28501206
5.025323,0.28367247
5.028949,0.28185326
5.03258,0.27995863
5.036216,0.27821417
5.039857,0.27662114
5.043504,0.27511103
5.047156,0.27369723
5.050813,0.27251101
5.054475,0.27173051
5.058143,0.27148429
5.061816,0.27180489
5.065495,0.27267037
5.069179,0.27406105
5.072868,0.27592112
5.076562,0.278026
5.080262,0.27994284
5.083967,0.28123944
5.087678,0.28180121
5.091394,0.28190745
5.095115,0.28196626
5.098842,0.28219499
5.102574,0.28254447
5.106312,0.28284831
5.110055,0.28299903
5.113804,0.28300523
5.117558,0.28293279
5.121318,0.28282351
5.125083,0.28269398
5.128854,0.28263409
5.13263,0.28287067
5.136412,0.2836095
5.140199,0.28471361
5.143992,0.28556979
5.147791,0.2854583
5.151595,0.28418854
5.155405,0.28230741
5.15922,0.28061251
5.163041,0.27953696
5.166868,0.27897954
5.1707,0.27856464
5.174538,0.27799687
5.178382,0.27725552
5.182231,0.27656978
5.186086,0.27621712
5.189947,0.27628916
5.193814,0.27662975
5.197686,0.27703522
5.201564,0.277465
5.205448,0.27791144
5.209338,0.27805298
5.213233,0.27728289
5.217134,0.2753511
5.221041,0.27289177
5.224954,0.27100957
5.228873,0.27032255
5.232798,0.27050906
5.236728,0.27075479
5.240665,0.27057656
5.244607,0.27014398
5.248555,0.26986685
5.25251,0.26992087
5.25647,0.27024915
5.260436,0.27080935
5.264408,0.27160744
5.268386,0.27253833
5.27237,0.27340434
5.27636,0.27417535
5.280356,0.27506831
5.284358,0.27619713
5.288367,0.27720178
5.292381,0.27743711
5.296401,0.27663282
5.300428,0.27523211
5.30446,0.27396385
5.308499,0.27321914
5.312544,0.27292035
5.316595,0.27280707
5.320652,0.27265895
5.324715,0.2723379
5.328785,0.27194127
5.33286,0.27204551
5.336942,0.27350619
5.341031,0.27662512
5.345125,0.28034189
5.349226,0.28250894
5.353333,0.28160991
5.357446,0.27828847
5.361566,0.27466387
5.365692,0.27240149
5.369824,0.27176862
5.373962,0.27204982
5.378107,0.27247072
5.382259,0.27279849
5.386417,0.27327246
5.390581,0.27417163
5.394751,0.27558556
5.398928,0.2776486
5.403112,0.28097128
5.407302,0.28662727
5.411498,0.2953323
5.415701,0.30619715
5.419911,0.31628505
5.424127,0.32257024
5.428349,0.32531608
5.432579,0.32839861
5.436814,0.33602061
5.441057,0.35028048
5.445305,0.37165499
5.449561,0.40145276
5.453823,0.44426112
5.458092,0.5085212
5.462368,0.60584645
5.46665,0.75269454
5.470939,0.9804505
5.475234,0.0133572339
5.479537,0.0160849957
5.483846,0.013543944
5.488162,0.92343024
5.492484,0.63122284
5.496814,0.45127036
5.50115,0.33634799
5.505493,0.25943598
5.509843,0.20518196
5.5142,0.16494409
5.518564,0.13415855
5.522934,0.11025887
5.527312,0.09136127
5.531696,0.07592603
5.536087,0.06290526
5.540486,0.05178559
5.544891,0.04240914
5.549303,0.03482168
5.553723,0.02916446
5.558149,0.02528561
5.562582,0.02301254
5.567023,0.02216559
5.57147,0.02220369
5.575925,0.02304489
5.580387,0.0245576
5.584856,0.02655462
5.589332,0.02878816
5.593815,0.03120317
5.598305,0.03386858
5.602803,0.03659229
5.607307,0.03926214
5.611819,0.04182581
5.616339,0.04426311
5.620865,0.04656257
5.625399,0.04871068
5.62994,0.05070905
5.634489,0.05260732
5.639044,0.05450724
5.643607,0.05650862
5.648178,0.0586347
5.652756,0.06080845
5.657341,0.06290633
5.661934,0.06484189
5.666534,0.06660913
5.671142,0.06826614
5.675757,0.06988572
5.680379,0.07151045
5.68501,0.0731328
5.689647,0.074708
5.694293,0.07619146
5.698945,0.07757677
5.703606,0.07890805
5.708274,0.08025881
5.712949,0.08168613
5.717633,0.08318848
5.722324,0.08470149
5.727022,0.08614444
5.731729,0.08748299
5.736443,0.08874899
5.741165,0.08998862
5.745894,0.09118613
5.750631,0.09226052
5.755377,0.09317066
5.76013,0.0940298
5.76489,0.09508434
5.769659,0.09651656
5.774436,0.09825512
5.77922,0.10002861
5.784012,0.10160497
5.788813,0.10295134
5.793621,0.10418383
5.798437,0.10539006
5.803262,0.10652122
5.808094,0.10746555
5.812934,0.10821745
5.817782,0.10896042
5.822639,0.10995676
5.827503,0.11131778
5.832376,0.11289702
5.837257,0.11443016
5.842146,0.11575518
5.847043,0.11689649
5.851948,0.11797932
5.856862,0.11907868
5.861783,0.12014964
5.866714,0.12109366
5.871652,0.12187453
5.876598,0.12256639
5.881553,0.12330814
5.886517,0.12422227
5.891488,0.12537188
5.896468,0.12676795
5.901457,0.12837255
5.906454,0.13007242
5.911459,0.13166377
5.916473,0.13291161
5.921495,0.1336913
5.926526,0.13413466
5.931565,0.13464082
5.936613,0.13562358
5.94167,0.13714388
5.946735,0.13885898
5.951809,0.1403638
5.956891,0.1415067
5.961982,0.14242433
5.967082,0.14335969
5.97219,0.14443878
5.977307,0.14559939
5.982433,0.14671233
5.987568,0.14773826
5.992711,0.14875128
5.997864,0.14981908
6.003025,0.15090204
6.008195,0.15191511
6.013374,0.15287291
6.018562,0.15388402
6.023759,0.15492959
6.028964,0.15572428
6.034179,0.15593149
6.039403,0.15561029
6.044636,0.15544432
6.049878,0.15623824
6.055129,0.15805889
6.060389,0.16021192
6.065658,0.16200533
6.070936,0.16331005
6.076224,0.1645042
6.08152,0.16595395
6.086826,0.16759129
6.092141,0.16902031
6.097466,0.16992102
6.1028,0.17034072
6.108143,0.1706899
6.113495,0.17142714
6.118857,0.17269731
6.124228,0.17429436
6.129609,0.17590861
6.134999,0.17734332
6.140398,0.17858598
6.145807,0.17978407
6.151226,0.18114605
6.156654,0.18277485
6.162091,0.18456629
6.167539,0.18632338
6.172996,0.18802519
6.178462,0.18997247
6.183938,0.19258586
6.189424,0.1959833
6.19492,0.19983052
6.200425,0.20366613
6.20594,0.20728413
6.211465,0.21079876
6.217,0.21444132
6.222544,0.21834479
6.228099,0.22250336
6.233663,0.22685742
6.239237,0.23134157
6.244822,0.23585737
6.250416,0.24024138
6.25602,0.24425578
6.261635,0.24760618
6.267259,0.25001336
6.272893,0.25136788
6.278538,0.25186667
6.284193,0.25197404
6.289858,0.25219344
6.295533,0.25284958
6.301218,0.25405618
6.306914,0.25576387
6.312619,0.2577131
6.318336,0.25940258
6.324062,0.26033211
6.329799,0.26045517
6.335546,0.26041236
6.341304,0.26111753
6.347072,0.26289488
6.352851,0.26516387
6.35864,0.26708621
6.36444,0.26835616
6.37025,0.26934959
6.376071,0.27055398
6.381903,0.27185968
6.387745,0.27250961
6.393598,0.27175622
6.399461,0.26962534
6.405335,0.26728832
6.411221,0.2664806
6.417116,0.26799405
6.423023,0.27097433
6.428941,0.2739754
6.434869,0.27616133
6.440809,0.27750446
6.446759,0.27835857
6.45272,0.27900609
6.458693,0.27946188
6.464676,0.27951674
6.470671,0.27892666
6.476676,0.27773192
6.482693,0.27655778
6.488721,0.27640719
6.49476,0.27780109
6.50081,0.28024121
6.506872,0.28272999
6.512945,0.28459179
6.519029,0.28579057
6.525124,0.28668197
6.531231,0.28755226
6.53735,0.28840106
6.54348,0.28906691
6.549621,0.28943714
6.555774,0.28955901
6.561938,0.28966393
6.568114,0.29009308
6.574302,0.29107682
6.580501,0.29251705
6.586712,0.29405086
6.592934,0.29538589
6.599169,0.29651944
6.605415,0.2975951
6.611673,0.29857965
6.617943,0.29917147
6.624224,0.29911594
6.630518,0.29866323
6.636823,0.29855741
6.643141,0.29934511
6.64947,0.30088505
6.655812,0.30260352
6.662166,0.30396147
6.668532,0.30475946
6.67491,0.30524064
6.6813,0.30589274
6.687702,0.30705014
6.694117,0.30866104
6.700544,0.31035316
6.706983,0.31169158
6.713435,0.31248952
6.719899,0.31292761
6.726375,0.31334637
6.732864,0.31396473
6.739365,0.31481051
6.745879,0.31583689
6.752406,0.31703268
6.758945,0.31839251
6.765497,0.31980614
6.772062,0.32101386
6.778639,0.32174932
6.785229,0.32200896
6.791832,0.32214874
6.798448,0.3226003
6.805076,0.32350365
6.811718,0.32464771
6.818372,0.32574149
6.825039,0.32674943
6.83172,0.32791736
6.838413,0.32942844
6.84512,0.33110346
6.85184,0.33248409
6.858573,0.33327986
6.865319,0.33372886
6.872078,0.33434913
6.878851,0.33541874
6.885637,0.3368214
6.892437,0.33824986
6.89925,0.3394687
6.906076,0.34045015
6.912916,0.34134638
6.919769,0.34239894
6.926636,0.34383864
6.933517,0.3457548
6.940411,0.34797387
6.947319,0.35009217
6.954241,0.35174581
6.961176,0.35292585
6.968125,0.35395026
6.975089,0.3551024
6.982066,0.35636997
6.989057,0.35751023
6.996062,0.35830277
7.003081,0.35875151
7.010114,0.35909125
7.017161,0.35963574
7.024223,0.36056627
7.031298,0.36176545
7.038388,0.36284574
7.045492,0.36346082
7.052611,0.3636382
7.059743,0.36373308
7.066891,0.36408433
7.074052,0.36479494
7.081229,0.36579167
7.088419,0.36698251
7.095625,0.36829434
7.102845,0.36963042
7.110079,0.37091027
7.117329,0.37219746
7.124593,0.37371632
7.131872,0.37566648
7.139166,0.3780006
7.146475,0.38038095
7.153799,0.38238787
7.161137,0.38385094
7.168491,0.38503397
7.17586,0.38644937
7.183244,0.38842
7.190643,0.39078036
7.198058,0.39301252
7.205487,0.39473862
7.212933,0.39609097
7.220393,0.39753823
7.227869,0.39941185
7.23536,0.40169431
7.242867,0.40417958
7.25039,0.40668988
7.257928,0.40909653
7.265481,0.41125617
7.273051,0.41305656
7.280636,0.41453875
7.288237,0.41591658
7.295854,0.4174647
7.303487,0.4193912
7.311135,0.42173364
7.3188,0.42427649
7.326481,0.42658431
7.334178,0.42826362
7.341891,0.42929033
7.34962,0.43004088
7.357366,0.43095023
7.365128,0.43218014
7.372906,0.43361945
7.380701,0.43513743
7.388512,0.43673567
7.39634,0.43846327
7.404184,0.44027306
7.412045,0.44206636
7.419922,0.44386547
7.427817,0.44586326
7.435728,0.44823182
7.443656,0.45087195
7.451601,0.45338096
7.459562,0.45532631
7.467541,0.45659301
7.475537,0.45746755
7.48355,0.45838617
7.49158,0.45961918
7.499628,0.46116408
7.507692,0.46286017
7.515774,0.46455868
7.523874,0.46620864
7.53199,0.46784473
7.540125,0.46953839
7.548277,0.47133908
7.556446,0.4732258
7.564633,0.47511124
7.572838,0.47690697
7.581061,0.47859215
7.589302,0.48020865
7.59756,0.48179127
7.605837,0.48332821
7.614131,0.48479657
7.622444,0.48621894
7.630774,0.48765637
7.639123,0.48915307
7.647491,0.4907011
7.655876,0.49226394
7.66428,0.49381817
7.672702,0.49537095
7.681143,0.49693732
7.689602,0.49851803
7.69808,0.50009886
7.706577,0.50167067
7.715093,0.50324762
7.723627,0.50485296
7.73218,0.50648384
7.740752,0.50808775
7.749343,0.50959211
7.757953,0.51096666
7.766583,0.51226219
7.775231,0.51357431
7.783899,0.51497237
7.792586,0.51645358
7.801292,0.51796525
7.810018,0.51945842
7.818764,0.52091304
7.827529,0.52232455
7.836313,0.52368013
7.845117,0.52495298
7.853942,0.52611794
7.862786,0.52716945
7.871649,0.52813282
7.880533,0.5290659
7.889437,0.53004957
7.898361,0.53115504
7.907305,0.53240607
7.91627,0.53376159
7.925254,0.53514554
7.93426,0.53649385
7.943285,0.53778864
7.952331,0.53905243
7.961398,0.5403242
7.970485,0.5416428
7.979594,0.5430463
7.988723,0.54456653
7.997872,0.54621103
8.007043,0.54795023
8.016235,0.54972478
8.025448,0.55147698
8.034682,0.55318187
8.043937,0.55485261
8.053214,0.55651569
8.062512,0.55817985
8.071832,0.55981922
8.081173,0.56138752
8.090535,0.56284283
8.09992,0.5641699
8.109326,0.56538147
8.118754,0.56651418
8.128204,0.56761634
8.137676,0.56873887
8.147169,0.56992315
8.156686,0.57119263
8.166224,0.5725455
8.175785,0.5739567
8.185368,0.57538724
8.194973,0.57680009
8.204601,0.57817414
8.214252,0.57950155
8.223925,0.58077937
8.233621,0.58199916
8.24334,0.58315348
8.253082,0.58425053
8.262847,0.58531723
8.272635,0.58638699
8.282446,0.58748474
8.292281,0.58861869
8.302139,0.58978416
8.31202,0.5909706
8.321925,0.59216327
8.331853,0.5933477
8.341805,0.59451312
8.351781,0.59565767
8.361781,0.596791
8.371804,0.59793354
8.381852,0.59911039
8.391924,0.60033711
8.40202,0.60159964
8.41214,0.60284679
8.422285,0.60401322
8.432454,0.60505979
8.442648,0.60600865
8.452866,0.60693507
8.463109,0.60792593
8.473377,0.60902132
8.48367,0.61020261
8.493988,0.61141638
8.504331,0.61262575
8.514699,0.61383065
8.525092,0.61505096
8.535511,0.61629528
8.545955,0.61754725
8.556425,0.61878051
8.566921,0.61998331
8.577442,0.62117024
8.587989,0.62237047
8.598562,0.62360288
8.609161,0.62485938
8.619786,0.62610879
8.630437,0.62732127
8.641115,0.62849226
8.651819,0.62964349
8.66255,0.63079993
8.673307,0.63195897
8.684091,0.63309501
8.694902,0.63418467
8.705739,0.63523398
8.716604,0.63627571
8.727496,0.63734129
8.738415,0.63844142
8.749361,0.63956475
8.760335,0.64069748
8.771336,0.64184024
8.782365,0.64300305
8.793422,0.64419332
8.804507,0.64539749
8.815619,0.64658819
8.82676,0.64774551
8.837928,0.6488774
8.849125,0.65001933
8.860351,0.65120307
8.871604,0.65242712
8.882887,0.65365638
8.894198,0.65484574
8.905538,0.65596617
8.916907,0.65700618
8.928305,0.65796807
8.939732,0.65886289
8.951188,0.65970387
8.962673,0.66050044
8.974189,0.66125164
8.985733,0.66195857
8.997308,0.66263868
9.008912,0.66332062
9.020546,0.66401518
9.03221,0.66469875
9.043905,0.66533059
9.055629,0.66588742
9.067384,0.66637894
9.07917,0.66683924
9.090986,0.66730202
9.102833,0.66777729
9.114711,0.66824798
9.12662,0.66867683
9.13856,0.66903314
9.150531,0.66931642
9.162534,0.66955425
9.174568,0.6697795
9.186634,0.67001748
9.198731,0.67029416
9.21086,0.670646
9.223022,0.67110911
9.235215,0.67168747
9.247441,0.67233405
9.259699,0.67297893
9.27199,0.67356992
9.284313,0.6741056
9.296669,0.67462825
9.309058,0.67519336
9.32148,0.67583548
9.333935,0.67654637
9.346423,0.67728755
9.358945,0.6780191
9.3715,0.67872627
9.384089,0.67942068
9.396712,0.68012179
9.409369,0.68084369
9.42206,0.68159242
9.434785,0.68237042
9.447545,0.68318355
9.460339,0.68404277
9.473167,0.68497175
9.486031,0.6859925
9.498929,0.68709402
9.511863,0.68821392
9.524832,0.68926588
9.537836,0.69019569
9.550876,0.69102119
9.563951,0.69180721
9.577062,0.69261696
9.590209,0.69347631
9.603393,0.69437724
9.616612,0.69529975
9.629868,0.69621784
9.64316,0.69710173
9.65649,0.69793312
9.669856,0.6987224
9.683259,0.69951491
9.696699,0.70036835
9.710176,0.70132146
9.723691,0.70237393
9.737244,0.70348488
9.750834,0.70459192
9.764463,0.70564399
9.778129,0.70662829
9.791834,0.70758179
9.805577,0.70855918
9.819359,0.70959055
9.83318,0.71065688
9.847039,0.71170444
9.860938,0.7126878
9.874875,0.71360235
9.888853,0.71448345
9.902869,0.71537471
9.916926,0.71630183
9.931022,0.71725746
9.945159,0.71821565
9.959336,0.7191463
9.973553,0.72002885
9.987811,0.7208587
10.002109,0.72165402
10.016449,0.72245146
10.03083,0.72328767
10.045252,0.72417229
10.059715,0.72507742
10.074221,0.72595501
10.088768,0.72677093
10.103357,0.72752043
10.117988,0.72822065
10.132662,0.72889011
10.147378,0.72954159
10.162137,0.73018705
10.176939,0.73084187
10.191784,0.73151996
10.206672,0.73222585
10.221604,0.73295156
10.23658,0.73368095
10.2516,0.7343961
10.266663,0.73508949
10.281771,0.7357714
10.296924,0.73646345
10.312121,0.73717851
10.327363,0.73791145
10.34265,0.73865149
10.357982,0.73940824
10.37336,0.74020561
10.388784,0.74105017
10.404253,0.74190412
10.419769,0.74271009
10.435331,0.74343916
10.450939,0.74411358
10.466594,0.74478002
10.482296,0.74546985
10.498045,0.74618979
10.513842,0.74694016
10.529686,0.74772056
10.545577,0.74851616
10.561517,0.74929354
10.577505,0.75002144
10.593542,0.75069568
10.609627,0.75134682
10.625761,0.75200942
10.641944,0.75270163
10.658176,0.75342081
10.674458,0.7541555
10.69079,0.75489113
10.707172,0.75561446
10.723604,0.75631544
10.740086,0.75699306
10.756619,0.75765689
10.773203,0.75832144
10.789839,0.7589992
10.806525,0.75969875
10.823264,0.76042719
10.840054,0.76119544
10.856896,0.76201725
10.873791,0.76290161
10.890738,0.76384565
10.907738,0.76483735
10.924791,0.76586175
10.941898,0.76689593
10.959058,0.76788122
10.976272,0.76870522
10.993541,0.76922673
11.010863,0.76935116
11.02824,0.76909652
11.045672,0.76859363
11.06316,0.76801254
11.080702,0.76747509
11.098301,0.76701356
11.115955,0.76658923
11.133665,0.76615243
11.151432,0.76568065
11.169256,0.76518457
11.187137,0.76467981
11.205075,0.76417742
11.22307,0.76369632
11.241124,0.76327378
11.259235,0.76294749
11.277405,0.76272105
11.295634,0.76256394
11.313921,0.76244525
11.332268,0.76236124
11.350675,0.76232254
11.369141,0.76232366
11.387667,0.7623488
11.406254,0.76240432
11.424901,0.76252939
11.44361,0.76275508
11.46238,0.7630662
11.481211,0.76340344
11.500105,0.76370508
11.51906,0.76393709
11.538079,0.76409165
11.55716,0.76417285
11.576304,0.76419435
11.595511,0.76419334
11.614783,0.76423016
11.634118,0.76437101
11.653518,0.76465497
11.672983,0.76506057
11.692513,0.76551708
11.712108,0.76594632
11.731769,0.76631458
11.751496,0.76663272
11.77129,0.76691771
11.79115,0.76716664
11.811077,0.767373
11.831072,0.7675542
11.851134,0.7677486
11.871265,0.76798298
11.891464,0.76825789
11.911731,0.76855206
11.932068,0.76884176
11.952475,0.76910494
11.972951,0.76932435
11.993497,0.76949457
12.014114,0.76961257
12.034802,0.76965165
12.055562,0.769551
12.076393,0.76926567
12.097296,0.76884024
12.118271,0.76842289
12.13932,0.76817886
12.160441,0.76817613
12.181636,0.76835413
12.202905,0.76859594
12.224249,0.76882279
12.245667,0.76902373
12.26716,0.76921791
12.288729,0.76941252
12.310373,0.76960758
12.332094,0.76982308
12.353892,0.77009054
12.375767,0.77041553
12.397719,0.77075947
12.41975,0.77106091
12.441859,0.77128305
12.464046,0.77143842
12.486313,0.77158304
12.508659,0.77178083
12.531086,0.77206285
12.553593,0.77240586
12.57618,0.77274312
12.59885,0.77301218
12.621601,0.77320447
12.644434,0.77338023
12.66735,0.77361422
12.690349,0.77393287
12.713432,0.77429787
12.736599,0.77465283
12.75985,0.77498573
12.783187,0.77532252
12.806608,0.77568338
12.830116,0.77604834
12.85371,0.77637632
12.877391,0.77663836
12.901159,0.77682838
12.925016,0.7769451
12.94896,0.77698842
12.972993,0.77696675
12.997116,0.77689225
13.021329,0.77676351
13.045631,0.77656042
13.070025,0.77627324
13.09451,0.77593099
13.119087,0.77557951
13.143756,0.77524069
13.168518,0.77491771
13.193373,0.77465031
13.218322,0.77453542
13.243366,0.77466591
13.268505,0.77503504
13.29374,0.77551422
13.31907,0.77592858
13.344497,0.77615229
13.370021,0.77614378
13.395644,0.77593109
13.421364,0.77558055
13.447183,0.77516759
13.473102,0.77475137
13.499121,0.77434901
13.52524,0.77395632
13.551461,0.77359747
13.577783,0.77334177
13.604208,0.77324078
13.630736,0.7732555
13.657367,0.7732666
13.684103,0.77316385
13.710943,0.77292587
13.737889,0.77261425
13.764941,0.77230285
13.792099,0.77200363
13.819365,0.77165044
13.846739,0.77114777
13.874221,0.77045451
13.901813,0.76963366
13.929515,0.76880289
13.957327,0.76801662
13.98525,0.76719751
14.013285,0.76620195
14.041433,0.7649592
14.069694,0.7635429
14.098068,0.7620974
14.126558,0.76069337
14.155163,0.75927588
14.183883,0.75775048
14.212721,0.75606081
14.241676,0.75416738
14.270749,0.75201662
14.29994,0.74957786
14.329252,0.74689844
14.358684,0.74408005
14.388237,0.74117111
14.417911,0.73808542
14.447709,0.73465325
14.477629,0.73077406
14.507674,0.72650022
14.537844,0.72195035
14.568139,0.71711423
14.598561,0.71178382
14.629109,0.7057157
14.659786,0.69886513
14.690592,0.69142464
14.721528,0.6836551
14.752594,0.67574223
14.783791,0.66779601
14.815121,0.65981303
14.846583,0.65149027
14.878179,0.64216455
14.90991,0.63120267
14.941777,0.61868042
14.97378,0.60548566
15.00592,0.59234405
15.038198,0.57893773
15.070616,0.56430977
15.103173,0.54792041
15.135871,0.53010583
15.168712,0.51150198
15.201695,0.49221307
15.234821,0.47184355
15.268092,0.45024221
15.301509,0.42789087
15.335072,0.40551888
15.368783,0.3835678
15.402642,0.36213224
15.436651,0.34123902
15.47081,0.32101821
15.50512,0.30167504
15.539583,0.28341825
15.574199,0.26635914
15.60897,0.25047295
15.643896,0.23582176
15.678979,0.22253884
15.71422,0.21073023
15.749619,0.20029742
15.785178,0.19086638
15.820897,0.18219671
15.856779,0.17432138
15.892824,0.16741131
15.929033,0.1614654
15.965407,0.15624596
