Database of Origin,University of Winnipeg Spectrophotometer Facility
Sample Description,"HOSERLab master pyroxenes, FTIR data"
Date Added,2016-12-14 03:34:49.576866

Data ID,FTIR_PYX_03         
Sample ID,PYX023
Mineral Name,Orthopyroxene
Grain Size,<45 um
Viewing Geometry,"i=30, e=0"
Material Class,Inosilicate

Wavelength
2000.56,0.58738781
2001.142,0.58725617
2001.725,0.58732698
2002.307,0.58765172
2002.891,0.5879211
2003.474,0.58817126
2004.058,0.58866834
2004.643,0.58924443
2005.227,0.58952598
2005.812,0.58961353
2006.397,0.58983388
2006.983,0.59012609
2007.569,0.59028888
2008.155,0.59046887
2008.742,0.59084312
2009.329,0.59122955
2009.916,0.59144045
2010.504,0.59161301
2011.092,0.59186298
2011.68,0.592051
2012.269,0.59211778
2012.858,0.59225659
2013.447,0.59258329
2014.037,0.59298194
2014.627,0.59335152
2015.217,0.59372058
2015.808,0.5940516
2016.399,0.59419899
2016.99,0.59413854
2017.582,0.59408434
2018.174,0.59425506
2018.766,0.59461279
2019.359,0.59494749
2019.952,0.59518716
2020.546,0.5954182
2021.139,0.59564383
2021.733,0.59575787
2022.328,0.59578625
2022.923,0.5958527
2023.518,0.59594627
2024.113,0.59602696
2024.709,0.59626456
2025.305,0.59679666
2025.902,0.59740578
2026.499,0.59778427
2027.096,0.59794437
2027.693,0.59802529
2028.291,0.59800329
2028.89,0.59788907
2029.488,0.59788812
2030.087,0.59807345
2030.686,0.59829787
2031.286,0.59854798
2031.886,0.59899002
2032.486,0.59960022
2033.087,0.6001819
2033.688,0.60071392
2034.289,0.60128937
2034.891,0.60181621
2035.493,0.60213382
2036.096,0.60226454
2036.698,0.60231993
2037.302,0.60235128
2037.905,0.60243983
2038.509,0.60268007
2039.113,0.60302072
2039.718,0.60333613
2040.322,0.60362477
2040.928,0.60391677
2041.533,0.60415921
2042.139,0.60434213
2042.746,0.60455905
2043.352,0.60483685
2043.959,0.60512538
2044.567,0.60543946
2045.174,0.60579515
2045.782,0.60607722
2046.391,0.60621518
2047.0,0.60632693
2047.609,0.60652277
2048.218,0.60675332
2048.828,0.60698636
2049.438,0.6072828
2050.049,0.60764168
2050.66,0.60800507
2051.271,0.60840538
2051.883,0.6088719
2052.495,0.60929472
2053.107,0.60955899
2053.72,0.60971164
2054.333,0.60983915
2054.947,0.60996574
2055.56,0.61012243
2056.175,0.61035503
2056.789,0.6106562
2057.404,0.61102824
2058.019,0.61150312
2058.635,0.61200502
2059.251,0.61237319
2059.867,0.61259279
2060.484,0.61276055
2061.101,0.61286204
2061.718,0.61284212
2062.336,0.61280912
2062.954,0.61288172
2063.573,0.6130202
2064.192,0.61322618
2064.811,0.61362898
2065.431,0.61414378
2066.051,0.6144608
2066.671,0.61454138
2067.292,0.61468853
2067.913,0.6150033
2068.534,0.61529248
2069.156,0.61552572
2069.778,0.61585743
2070.401,0.61621818
2071.024,0.61644146
2071.647,0.61665413
2072.271,0.61703068
2072.895,0.61738429
2073.519,0.61751188
2074.144,0.61761101
2074.769,0.61788113
2075.395,0.61810966
2076.02,0.61810562
2076.647,0.61807977
2077.273,0.61820515
2077.9,0.6182943
2078.528,0.61827292
2079.155,0.61841451
2079.784,0.61884159
2080.412,0.61931665
2081.041,0.61973666
2081.67,0.62025949
2082.3,0.62082316
2082.93,0.62110803
2083.56,0.62108998
2084.191,0.62107494
2084.822,0.62118605
2085.454,0.62128885
2086.085,0.62139567
2086.718,0.62166106
2087.35,0.62204552
2087.983,0.62237695
2088.617,0.62264823
2089.251,0.62294567
2089.885,0.62323104
2090.519,0.62344024
2091.154,0.62364552
2091.789,0.62390063
2092.425,0.62410236
2093.061,0.62414585
2093.697,0.62410555
2094.334,0.62414834
2094.971,0.62435431
2095.609,0.62465524
2096.247,0.62493593
2096.885,0.6251648
2097.524,0.62541176
2098.163,0.62572601
2098.803,0.62609534
2099.443,0.62652837
2100.083,0.62702531
2100.723,0.62746613
2101.364,0.62774472
2102.006,0.62796675
2102.648,0.62828675
2103.29,0.62863532
2103.932,0.62890184
2104.575,0.62919789
2105.219,0.62963551
2105.862,0.63006132
2106.506,0.63033513
2107.151,0.63059706
2107.796,0.63097526
2108.441,0.63134069
2109.087,0.63162309
2109.733,0.63198949
2110.379,0.63249468
2111.026,0.63289933
2111.673,0.63307127
2112.321,0.63317842
2112.969,0.6333509
2113.617,0.63350011
2114.266,0.63360268
2114.915,0.63381554
2115.565,0.63420954
2116.215,0.63463306
2116.865,0.63496774
2117.516,0.63529738
2118.167,0.63570698
2118.819,0.63610387
2119.471,0.63638921
2120.123,0.63663595
2120.776,0.63689986
2121.429,0.6370395
2122.082,0.63698621
2122.736,0.63698832
2123.391,0.63724523
2124.045,0.63753144
2124.7,0.63758188
2125.356,0.63753642
2126.012,0.63756959
2126.668,0.63748822
2127.325,0.63719504
2127.982,0.63704839
2128.64,0.63727762
2129.297,0.63761222
2129.956,0.63790915
2130.614,0.63843889
2131.274,0.63919672
2131.933,0.6397413
2132.593,0.64001106
2133.253,0.64042149
2133.914,0.64098941
2134.575,0.64130678
2135.237,0.64140768
2135.899,0.64169969
2136.561,0.64214867
2137.224,0.64244556
2137.887,0.64271541
2138.55,0.64318494
2139.214,0.64357213
2139.879,0.64361411
2140.544,0.64368423
2141.209,0.64416665
2141.874,0.64479563
2142.54,0.64518437
2143.207,0.6454144
2143.873,0.64563518
2144.541,0.6457321
2145.208,0.64571627
2145.876,0.64584961
2146.545,0.6461743
2147.214,0.64646512
2147.883,0.64668784
2148.553,0.64701598
2149.223,0.647432
2149.893,0.64772889
2150.564,0.64784887
2151.235,0.64790517
2151.907,0.64796404
2152.579,0.6480291
2153.252,0.64811332
2153.925,0.64819988
2154.598,0.64824668
2155.272,0.64828985
2155.946,0.64843691
2156.621,0.64874675
2157.296,0.64916157
2157.972,0.649543
2158.647,0.64977942
2159.324,0.6499115
2160.001,0.65008818
2160.678,0.65034129
2161.355,0.65053693
2162.033,0.65061409
2162.712,0.65068353
2163.39,0.65081453
2164.07,0.65094219
2164.749,0.65106584
2165.429,0.65129009
2166.11,0.65159912
2166.791,0.65183094
2167.472,0.65194569
2168.154,0.65207903
2168.836,0.6523008
2169.519,0.6525574
2170.202,0.65285368
2170.885,0.65321474
2171.569,0.65351462
2172.254,0.65360743
2172.938,0.65358559
2173.624,0.65365184
2174.309,0.65383157
2174.995,0.65404023
2175.682,0.65429113
2176.368,0.65459577
2177.056,0.65483719
2177.743,0.65495446
2178.432,0.65505997
2179.12,0.65519506
2179.809,0.65521026
2180.499,0.65506676
2181.189,0.6549961
2181.879,0.65522725
2182.57,0.65575199
2183.261,0.65640548
2183.952,0.65698142
2184.644,0.65727801
2185.337,0.65727432
2186.03,0.6572117
2186.723,0.65734073
2187.417,0.65768079
2188.111,0.6581075
2188.806,0.65850606
2189.501,0.65878604
2190.196,0.6589301
2190.892,0.65903887
2191.589,0.659193
2192.285,0.65932673
2192.983,0.65937102
2193.68,0.65936057
2194.379,0.65931262
2195.077,0.65921814
2195.776,0.65919858
2196.476,0.65942066
2197.175,0.6598496
2197.876,0.66033071
2198.577,0.66081743
2199.278,0.66127295
2199.979,0.66153207
2200.682,0.661547
2201.384,0.6615293
2202.087,0.66161948
2202.79,0.66169728
2203.494,0.66167871
2204.199,0.66168324
2204.903,0.66178528
2205.609,0.66190311
2206.314,0.66201525
2207.02,0.66220078
2207.727,0.66245162
2208.434,0.66267955
2209.141,0.66286848
2209.849,0.66302461
2210.557,0.66307649
2211.266,0.66298874
2211.975,0.66288385
2212.685,0.6629206
2213.395,0.6631055
2214.106,0.66330017
2214.817,0.66338589
2215.528,0.66337084
2216.24,0.663334
2216.952,0.66331475
2217.665,0.66333227
2218.379,0.66344506
2219.092,0.66365517
2219.806,0.66381269
2220.521,0.66377927
2221.236,0.66359081
2221.952,0.66331493
2222.668,0.66293251
2223.384,0.66252348
2224.101,0.66229945
2224.818,0.66229686
2225.536,0.66232789
2226.254,0.6623106
2226.973,0.66232537
2227.692,0.66235358
2228.412,0.66231744
2229.132,0.66227996
2229.853,0.66227378
2230.574,0.66211533
2231.295,0.66168815
2232.017,0.6611637
2232.74,0.66071153
2233.462,0.66033838
2234.186,0.66009115
2234.91,0.6600433
2235.634,0.66006239
2236.359,0.65998025
2237.084,0.65987905
2237.809,0.65987285
2238.536,0.65984484
2239.262,0.65969676
2239.989,0.65951476
2240.717,0.65931944
2241.445,0.65904649
2242.173,0.65881407
2242.902,0.65874105
2243.631,0.65862778
2244.361,0.65828529
2245.092,0.65792353
2245.822,0.65776853
2246.554,0.65769384
2247.285,0.65759856
2248.017,0.65763921
2248.75,0.65780194
2249.483,0.65783331
2250.217,0.6577403
2250.951,0.65774246
2251.686,0.65775825
2252.421,0.65757393
2253.156,0.65736025
2253.892,0.65737756
2254.628,0.65745983
2255.365,0.65735704
2256.103,0.65719543
2256.841,0.65712928
2257.579,0.65699811
2258.318,0.65669791
2259.057,0.65640086
2259.797,0.65616721
2260.537,0.65583323
2261.278,0.6553967
2262.019,0.65504484
2262.761,0.65477702
2263.503,0.65440836
2264.246,0.65387547
2264.989,0.65322685
2265.732,0.65245036
2266.477,0.65157163
2267.221,0.65077283
2267.966,0.65021894
2268.712,0.64990124
2269.458,0.64970683
2270.204,0.64955769
2270.951,0.64945571
2271.699,0.64944849
2272.447,0.64950642
2273.195,0.64947568
2273.944,0.6492383
2274.694,0.64884253
2275.444,0.64839515
2276.194,0.64795818
2276.945,0.64759026
2277.696,0.6472842
2278.448,0.64688495
2279.201,0.64630687
2279.954,0.64575935
2280.707,0.64546205
2281.461,0.64527191
2282.215,0.64490702
2282.97,0.64436406
2283.725,0.6437852
2284.481,0.64312085
2285.237,0.6422748
2285.994,0.64138412
2286.752,0.6406533
2287.509,0.64008883
2288.268,0.63959718
2289.026,0.6391059
2289.786,0.63845957
2290.545,0.63750748
2291.306,0.6364006
2292.067,0.63552052
2292.828,0.63501875
2293.59,0.63469787
2294.352,0.63437747
2295.115,0.63405981
2295.878,0.63371948
2296.642,0.63326368
2297.406,0.63275887
2298.171,0.63239448
2298.936,0.63219336
2299.702,0.63200599
2300.468,0.63177531
2301.235,0.63154053
2302.002,0.63122837
2302.77,0.63071067
2303.539,0.6300292
2304.307,0.62933863
2305.077,0.6286922
2305.847,0.62805327
2306.617,0.62742226
2307.388,0.62678098
2308.159,0.62601885
2308.931,0.62504816
2309.703,0.62390431
2310.476,0.62268821
2311.25,0.62151784
2312.024,0.62052765
2312.798,0.61980268
2313.573,0.61930978
2314.348,0.61897896
2315.124,0.61875628
2315.901,0.61856467
2316.678,0.61834303
2317.455,0.61813279
2318.234,0.61798864
2319.012,0.61787988
2319.791,0.61781198
2320.571,0.61790857
2321.351,0.61823141
2322.131,0.61871381
2322.913,0.61935709
2323.694,0.62023027
2324.476,0.62122488
2325.259,0.6221138
2326.042,0.62286968
2326.826,0.6236091
2327.61,0.62428141
2328.395,0.62476211
2329.18,0.62514284
2329.966,0.6255996
2330.753,0.62612029
2331.54,0.6266497
2332.327,0.62727865
2333.115,0.62805592
2333.903,0.62883521
2334.692,0.62950187
2335.482,0.63011214
2336.272,0.63072112
2337.062,0.63131453
2337.854,0.63195848
2338.645,0.6327991
2339.437,0.63386975
2340.23,0.63504172
2341.023,0.63616291
2341.817,0.63716667
2342.611,0.63807219
2343.406,0.63893791
2344.201,0.63980842
2344.997,0.64070234
2345.794,0.64160282
2346.591,0.64242754
2347.388,0.6431151
2348.186,0.64378909
2348.985,0.644633
2349.784,0.64555063
2350.583,0.64623971
2351.384,0.64664548
2352.184,0.64699941
2352.986,0.64741376
2353.787,0.64784208
2354.59,0.64834908
2355.393,0.64896704
2356.196,0.64944605
2357.0,0.64958863
2357.804,0.64960052
2358.609,0.64970162
2359.415,0.64977065
2360.221,0.64972845
2361.028,0.64978612
2361.835,0.64998841
2362.643,0.6500484
2363.451,0.6498818
2364.26,0.64973107
2365.069,0.64964366
2365.879,0.64938525
2366.69,0.64893665
2367.501,0.64850243
2368.312,0.64807873
2369.125,0.64750767
2369.937,0.64684065
2370.751,0.64622269
2371.564,0.64562354
2372.379,0.64500038
2373.194,0.64446533
2374.009,0.64405107
2374.825,0.64359297
2375.642,0.64302227
2376.459,0.6424799
2377.276,0.64205309
2378.095,0.64165673
2378.913,0.64120355
2379.733,0.64067143
2380.553,0.6400316
2381.373,0.63930011
2382.194,0.63862345
2383.016,0.63819282
2383.838,0.63809565
2384.661,0.63826566
2385.484,0.63853668
2386.308,0.63876328
2387.132,0.63893161
2387.957,0.63910594
2388.783,0.63928675
2389.609,0.63941607
2390.435,0.63950047
2391.263,0.63960283
2392.09,0.63973016
2392.919,0.63985271
2393.748,0.64001662
2394.577,0.64031327
2395.407,0.64074913
2396.238,0.64122815
2397.069,0.64166775
2397.901,0.64203635
2398.733,0.64233852
2399.566,0.64263525
2400.399,0.64303765
2401.233,0.64356707
2402.068,0.6440663
2402.903,0.64434769
2403.739,0.64440441
2404.575,0.64436801
2405.412,0.64431976
2406.25,0.64427869
2407.088,0.64430186
2407.926,0.64440147
2408.766,0.64442664
2409.606,0.64423958
2410.446,0.6439359
2411.287,0.6437013
2412.128,0.64356176
2412.971,0.64344736
2413.813,0.64335623
2414.657,0.64328007
2415.5,0.64313964
2416.345,0.64294174
2417.19,0.64279681
2418.036,0.6426691
2418.882,0.64235619
2419.729,0.64182117
2420.576,0.64128945
2421.424,0.64094359
2422.272,0.6407723
2423.122,0.64074364
2423.971,0.64086175
2424.822,0.64101924
2425.673,0.64103175
2426.524,0.64086786
2427.376,0.64064988
2428.229,0.64044328
2429.082,0.64021435
2429.936,0.63995761
2430.791,0.63970883
2431.646,0.63945401
2432.501,0.63917873
2433.358,0.63897182
2434.214,0.63893769
2435.072,0.63902387
2435.93,0.63907749
2436.789,0.63902879
2437.648,0.63891055
2438.508,0.63873697
2439.368,0.63853179
2440.229,0.63839153
2441.091,0.63838357
2441.953,0.6384584
2442.816,0.63855719
2443.679,0.63868411
2444.543,0.63879812
2445.408,0.6388257
2446.273,0.63884009
2447.139,0.63899332
2448.006,0.639249
2448.873,0.63941007
2449.74,0.63937268
2450.609,0.63915914
2451.478,0.63884088
2452.347,0.63860732
2453.217,0.63864254
2454.088,0.63880739
2454.959,0.63878197
2455.831,0.63859087
2456.704,0.6385081
2457.577,0.63850843
2458.451,0.63836632
2459.325,0.6381583
2460.2,0.63807023
2461.076,0.6379913
2461.952,0.63784805
2462.829,0.63789531
2463.707,0.63816302
2464.585,0.63822031
2465.464,0.63792112
2466.343,0.63763935
2467.223,0.63749801
2468.104,0.63723583
2468.985,0.63695245
2469.867,0.63698783
2470.749,0.63712837
2471.632,0.63693927
2472.516,0.63661885
2473.4,0.63651967
2474.285,0.63635227
2475.171,0.63580995
2476.057,0.63526117
2476.944,0.63499074
2477.832,0.63462386
2478.72,0.63400688
2479.608,0.63364796
2480.498,0.63375742
2481.388,0.63389885
2482.278,0.63391209
2483.17,0.6340752
2484.062,0.63424795
2484.954,0.63399443
2485.847,0.63348115
2486.741,0.63321179
2487.636,0.63315081
2488.531,0.63299414
2489.427,0.63286292
2490.323,0.63289926
2491.22,0.63275495
2492.118,0.63219205
2493.016,0.63158526
2493.915,0.63127692
2494.814,0.63107668
2495.715,0.63077265
2496.615,0.63048423
2497.517,0.63026158
2498.419,0.62996574
2499.322,0.62966016
2500.225,0.62954837
2501.129,0.62953596
2502.034,0.62936985
2502.939,0.6291157
2503.845,0.6290065
2504.752,0.62899293
2505.659,0.62887683
2506.567,0.62869695
2507.476,0.62858533
2508.385,0.62850686
2509.295,0.62844123
2510.206,0.6285332
2511.117,0.62880269
2512.029,0.62901403
2512.942,0.62903988
2513.855,0.6290199
2514.769,0.62904427
2515.683,0.62905567
2516.598,0.62909344
2517.514,0.62923635
2518.431,0.62936052
2519.348,0.62937069
2520.266,0.62948593
2521.184,0.6298695
2522.103,0.63025455
2523.023,0.6303452
2523.944,0.63023665
2524.865,0.63007781
2525.787,0.62982685
2526.709,0.62963867
2527.632,0.62983413
2528.556,0.63028341
2529.48,0.6304906
2530.406,0.63039931
2531.331,0.63039501
2532.258,0.63054105
2533.185,0.63059866
2534.113,0.63065619
2535.041,0.63086865
2535.971,0.63093349
2536.9,0.63061369
2537.831,0.63030866
2538.762,0.63035706
2539.694,0.63044158
2540.627,0.63022759
2541.56,0.62997403
2542.494,0.62997825
2543.428,0.63007763
2544.364,0.6301801
2545.3,0.63049992
2546.236,0.63090846
2547.174,0.63090059
2548.112,0.63050147
2549.05,0.63035582
2549.99,0.63062673
2550.93,0.63072217
2551.87,0.63035316
2552.812,0.62998245
2553.754,0.62982934
2554.697,0.62951356
2555.64,0.62902262
2556.585,0.62891227
2557.529,0.62929224
2558.475,0.62961233
2559.421,0.62975606
2560.368,0.63017313
2561.316,0.6305613
2562.264,0.62996005
2563.213,0.62879147
2564.163,0.6284053
2565.113,0.62876472
2566.065,0.62896675
2567.016,0.62918903
2567.969,0.62997199
2568.922,0.63062114
2569.876,0.63034102
2570.831,0.63009734
2571.786,0.63076141
2572.742,0.63130308
2573.699,0.63088328
2574.656,0.63067977
2575.615,0.63122777
2576.573,0.63119581
2577.533,0.63037435
2578.493,0.63038192
2579.454,0.63132709
2580.416,0.63161489
2581.378,0.63123683
2582.342,0.63169466
2583.305,0.6325511
2584.27,0.63217366
2585.235,0.63150676
2586.201,0.63199469
2587.168,0.63246956
2588.135,0.63161768
2589.103,0.63102805
2590.072,0.63194652
2591.042,0.63322127
2592.012,0.63411633
2592.983,0.63572223
2593.955,0.63749725
2594.927,0.63644235
2595.9,0.63333528
2596.874,0.6319309
2597.849,0.63212513
2598.824,0.6320362
2599.8,0.63182705
2600.777,0.63248124
2601.755,0.63330887
2602.733,0.63326631
2603.712,0.63325456
2604.692,0.63387363
2605.672,0.63370845
2606.653,0.6324388
2607.635,0.63187568
2608.618,0.63235867
2609.601,0.63255718
2610.585,0.63235765
2611.57,0.63266952
2612.556,0.63321109
2613.542,0.63320422
2614.529,0.63306837
2615.517,0.63332711
2616.505,0.63328035
2617.495,0.63262393
2618.485,0.63235008
2619.475,0.63258234
2620.467,0.63222308
2621.459,0.6313247
2622.452,0.63094016
2623.446,0.63113181
2624.44,0.63125971
2625.435,0.63135926
2626.431,0.63176481
2627.428,0.63214793
2628.426,0.63217647
2629.424,0.63211518
2630.423,0.63194313
2631.423,0.63119042
2632.423,0.63012489
2633.424,0.62944099
2634.426,0.62911664
2635.429,0.62871284
2636.432,0.62830418
2637.437,0.62814182
2638.442,0.62801921
2639.447,0.62760635
2640.454,0.62699666
2641.461,0.62650164
2642.469,0.62621279
2643.478,0.62599848
2644.488,0.62565219
2645.498,0.62502733
2646.509,0.6241827
2647.521,0.62335977
2648.534,0.62278965
2649.547,0.62253887
2650.561,0.62236883
2651.576,0.62179776
2652.592,0.62071525
2653.609,0.61962413
2654.626,0.61880518
2655.644,0.61793963
2656.663,0.6169845
2657.682,0.61628504
2658.703,0.61560498
2659.724,0.61426917
2660.746,0.61259451
2661.768,0.6116356
2662.792,0.61139524
2663.816,0.61089746
2664.841,0.60969017
2665.867,0.60794921
2666.894,0.60564192
2667.921,0.60295908
2668.949,0.60044149
2669.978,0.59738462
2671.008,0.59237639
2672.038,0.58632678
2673.07,0.58159309
2674.102,0.5783499
2675.135,0.57483169
2676.168,0.56974378
2677.203,0.56303955
2678.238,0.55474315
2679.274,0.54513129
2680.311,0.5354585
2681.349,0.5263173
2682.387,0.5165948
2683.426,0.50500494
2684.467,0.49161234
2685.507,0.47692862
2686.549,0.46078695
2687.591,0.44326285
2688.635,0.42538916
2689.679,0.40818568
2690.724,0.39202649
2691.769,0.37680818
2692.816,0.36164338
2693.863,0.3447148
2694.911,0.32514077
2695.96,0.30482112
2697.01,0.28635084
2698.06,0.2705301
2699.112,0.25703982
2700.164,0.24547619
2701.217,0.23520267
2702.27,0.22547135
2703.325,0.21621862
2704.38,0.20801918
2705.437,0.20129331
2706.494,0.19629202
2707.552,0.19345613
2708.61,0.1929233
2709.67,0.19349333
2710.73,0.19300236
2711.791,0.19048485
2712.853,0.18692879
2713.916,0.18353679
2714.98,0.18095229
2716.044,0.17977684
2717.109,0.18050142
2718.175,0.18273844
2719.242,0.18503573
2720.31,0.18581462
2721.379,0.1848404
2722.448,0.18348593
2723.518,0.18299665
2724.589,0.18311051
2725.661,0.18259136
2726.734,0.18086503
2727.808,0.17868222
2728.882,0.1770927
2729.958,0.1764174
2731.034,0.17633477
2732.111,0.17657307
2733.188,0.17708064
2734.267,0.17757331
2735.347,0.17762304
2736.427,0.17742467
2737.508,0.17774834
2738.59,0.17898931
2739.673,0.1806057
2740.757,0.1814372
2741.841,0.1808475
2742.927,0.17942764
2744.013,0.17816008
2745.1,0.17761956
2746.188,0.17780524
2747.277,0.17831936
2748.367,0.17889263
2749.457,0.17956841
2750.549,0.18033773
2751.641,0.18108387
2752.734,0.18194753
2753.828,0.18312757
2754.923,0.18421074
2756.019,0.18443856
2757.115,0.18401383
2758.213,0.1837932
2759.311,0.18400329
2760.41,0.18447746
2761.51,0.18526898
2762.611,0.18635068
2763.713,0.1872908
2764.816,0.18786919
2765.919,0.18844679
2767.024,0.18918953
2768.129,0.18982783
2769.235,0.19029035
2770.342,0.19082191
2771.45,0.19134709
2772.559,0.19157991
2773.669,0.19173632
2774.779,0.19228014
2775.891,0.19317197
2777.003,0.19403668
2778.116,0.19480398
2779.23,0.19562908
2780.345,0.19641099
2781.461,0.19696902
2782.578,0.19746097
2783.696,0.19807877
2784.814,0.19866661
2785.934,0.1990519
2787.054,0.19944262
2788.175,0.20008804
2789.297,0.20083194
2790.42,0.20142856
2791.544,0.20194859
2792.669,0.20251693
2793.795,0.20304344
2794.922,0.20343752
2796.049,0.20384932
2797.178,0.2044238
2798.307,0.2050327
2799.437,0.20549358
2800.568,0.20583921
2801.7,0.20614817
2802.833,0.20634644
2803.967,0.20644004
2805.102,0.20672154
2806.238,0.20735406
2807.374,0.20805658
2808.512,0.20855008
2809.65,0.20891415
2810.789,0.20928734
2811.93,0.20959552
2813.071,0.20981389
2814.213,0.21015384
2815.356,0.21073397
2816.5,0.21138418
2817.645,0.21195803
2818.791,0.21249212
2819.937,0.21295032
2821.085,0.21320899
2822.233,0.21338862
2823.383,0.2137618
2824.533,0.21431618
2825.685,0.21482219
2826.837,0.21519079
2827.99,0.21547144
2829.144,0.21566098
2830.299,0.21577385
2831.455,0.21593686
2832.612,0.21621752
2833.77,0.21651548
2834.929,0.21674892
2836.089,0.21696327
2837.25,0.21722231
2838.411,0.21755189
2839.574,0.21795471
2840.737,0.21834201
2841.902,0.21857297
2843.067,0.2186512
2844.234,0.21872255
2845.401,0.21884317
2846.569,0.21895648
2847.739,0.21910818
2848.909,0.21941369
2850.08,0.2198476
2851.252,0.22027836
2852.425,0.22063901
2853.599,0.22085887
2854.774,0.2208364
2855.95,0.22067901
2857.127,0.22071484
2858.305,0.22107813
2859.484,0.22157224
2860.664,0.22201622
2861.844,0.22243887
2863.026,0.22283396
2864.209,0.22305934
2865.392,0.22308744
2866.577,0.22306433
2867.763,0.22305962
2868.949,0.22302207
2870.137,0.22299445
2871.325,0.22311536
2872.515,0.22338048
2873.705,0.22362339
2874.897,0.22376941
2876.089,0.22387625
2877.283,0.2239459
2878.477,0.22392082
2879.673,0.22387381
2880.869,0.22393577
2882.066,0.22406363
2883.265,0.22411041
2884.464,0.22413043
2885.664,0.22434121
2886.866,0.2247645
2888.068,0.22516171
2889.271,0.22537359
2890.476,0.22543108
2891.681,0.22533417
2892.887,0.22504482
2894.095,0.22470867
2895.303,0.22453712
2896.512,0.224487
2897.723,0.22437842
2898.934,0.22426693
2900.146,0.22433877
2901.36,0.22451106
2902.574,0.22451462
2903.789,0.2243405
2905.006,0.22421105
2906.223,0.22420949
2907.441,0.22427396
2908.661,0.22441832
2909.881,0.22464689
2911.103,0.22479188
2912.325,0.22474766
2913.549,0.22472059
2914.773,0.22494631
2915.999,0.22532408
2917.225,0.22559516
2918.453,0.22571256
2919.681,0.22577366
2920.911,0.22577158
2922.142,0.22566425
2923.373,0.22554149
2924.606,0.22550124
2925.84,0.22547919
2927.075,0.22539251
2928.31,0.22530152
2929.547,0.2252552
2930.785,0.22516541
2932.024,0.2250212
2933.264,0.22503287
2934.505,0.22534921
2935.747,0.22579973
2936.99,0.22612799
2938.234,0.22631159
2939.479,0.22644742
2940.726,0.22652073
2941.973,0.22653075
2943.221,0.22666933
2944.471,0.22713146
2945.721,0.22783064
2946.973,0.22848231
2948.225,0.22885406
2949.479,0.22886099
2950.733,0.22860509
2951.989,0.22840575
2953.246,0.22857106
2954.504,0.22903317
2955.763,0.22939004
2957.023,0.22938535
2958.284,0.22916124
2959.546,0.22900142
2960.809,0.22903971
2962.073,0.22928288
2963.339,0.2297075
2964.605,0.23022254
2965.873,0.23066825
2967.141,0.23095473
2968.411,0.23113827
2969.681,0.23133577
2970.953,0.23163912
2972.226,0.23213569
2973.5,0.23288091
2974.775,0.23376481
2976.051,0.23449063
2977.328,0.23480454
2978.607,0.23473009
2979.886,0.2345258
2981.167,0.23444669
2982.448,0.23459819
2983.731,0.23493697
2985.015,0.23533499
2986.3,0.23570137
2987.586,0.23610307
2988.873,0.23669446
2990.161,0.23747042
2991.45,0.23818765
2992.74,0.23860383
2994.032,0.23872423
2995.324,0.23876389
2996.618,0.23894847
2997.913,0.2393952
2999.209,0.24008625
3000.506,0.24087285
3001.804,0.24153826
3003.103,0.24193151
3004.404,0.24207447
3005.705,0.24212875
3007.008,0.24223913
3008.312,0.24243603
3009.616,0.24271263
3010.922,0.24311429
3012.23,0.24366068
3013.538,0.24423724
3014.847,0.24468651
3016.158,0.24497225
3017.469,0.24516852
3018.782,0.24535897
3020.096,0.2456333
3021.411,0.24605989
3022.727,0.24656189
3024.044,0.24697042
3025.363,0.24728714
3026.683,0.24773396
3028.003,0.24847382
3029.325,0.2494443
3030.648,0.25047217
3031.972,0.25134733
3033.298,0.25181095
3034.624,0.25174124
3035.952,0.25137488
3037.281,0.25111632
3038.611,0.25115586
3039.942,0.25145888
3041.274,0.25200228
3042.607,0.25274957
3043.942,0.25348917
3045.278,0.25396314
3046.615,0.25413365
3047.953,0.25416488
3049.292,0.25421026
3050.632,0.25434293
3051.974,0.2545939
3053.317,0.2549171
3054.661,0.25519266
3056.006,0.25537561
3057.352,0.25558196
3058.7,0.25594848
3060.048,0.2564877
3061.398,0.25713765
3062.749,0.25785271
3064.101,0.25853797
3065.455,0.25898534
3066.809,0.25904355
3068.165,0.25883695
3069.522,0.25867243
3070.88,0.25873299
3072.239,0.25898578
3073.6,0.25935027
3074.962,0.25977815
3076.325,0.26018778
3077.689,0.26051122
3079.054,0.26080057
3080.421,0.26113039
3081.788,0.26144595
3083.157,0.26168202
3084.527,0.26193159
3085.899,0.26230719
3087.271,0.26273255
3088.645,0.26305407
3090.02,0.26325479
3091.396,0.26340532
3092.774,0.26352978
3094.153,0.26367632
3095.532,0.26398111
3096.914,0.2645197
3098.296,0.26520205
3099.679,0.26587858
3101.064,0.26642471
3102.45,0.26672706
3103.837,0.26676109
3105.226,0.26670239
3106.616,0.26679718
3108.007,0.26711328
3109.399,0.26753503
3110.792,0.26796427
3112.187,0.268394
3113.583,0.26882723
3114.98,0.26924402
3116.378,0.26963894
3117.778,0.2700322
3119.179,0.27046505
3120.581,0.27098534
3121.985,0.27159388
3123.389,0.27221725
3124.795,0.27277527
3126.202,0.2732463
3127.611,0.27364527
3129.02,0.27400334
3130.431,0.27438428
3131.844,0.2748388
3133.257,0.27533868
3134.672,0.27584045
3136.088,0.27636811
3137.505,0.27693659
3138.924,0.27747503
3140.344,0.27795198
3141.765,0.27847463
3143.187,0.27913277
3144.611,0.2798476
3146.036,0.28050686
3147.462,0.28110993
3148.89,0.28166766
3150.319,0.28213601
3151.749,0.28254271
3153.18,0.2830032
3154.613,0.28352841
3156.047,0.28401476
3157.482,0.28446735
3158.919,0.28501266
3160.357,0.28566934
3161.796,0.28633992
3163.236,0.28702057
3164.678,0.28778024
3166.121,0.28856344
3167.566,0.2892574
3169.011,0.28989075
3170.458,0.29054383
3171.907,0.2911552
3173.356,0.29165464
3174.807,0.29218167
3176.26,0.29296017
3177.713,0.29402211
3179.168,0.29518593
3180.624,0.29618988
3182.082,0.29677872
3183.541,0.29685937
3185.001,0.29667783
3186.463,0.29667293
3187.926,0.29708368
3189.39,0.29783732
3190.856,0.29878828
3192.323,0.29983309
3193.791,0.30078674
3195.26,0.3014086
3196.731,0.30164209
3198.204,0.30170073
3199.677,0.30187533
3201.152,0.30233524
3202.629,0.30306466
3204.106,0.30387827
3205.585,0.30453426
3207.066,0.30495706
3208.548,0.30535657
3210.031,0.30605136
3211.515,0.30717991
3213.001,0.30860667
3214.488,0.31003924
3215.977,0.31116472
3217.467,0.31175157
3218.958,0.3117839
3220.451,0.31153342
3221.945,0.31141295
3223.441,0.31169564
3224.938,0.312347
3226.436,0.31308619
3227.936,0.31360205
3229.437,0.3138016
3230.939,0.31389151
3232.443,0.31416582
3233.948,0.31470035
3235.455,0.31533121
3236.963,0.31590433
3238.472,0.3164244
3239.983,0.31697256
3241.495,0.31762048
3243.008,0.31840503
3244.523,0.31926646
3246.04,0.3200512
3247.558,0.3206958
3249.077,0.3213237
3250.598,0.32205437
3252.12,0.32285433
3253.643,0.32367738
3255.168,0.32454614
3256.694,0.32537948
3258.222,0.32595159
3259.751,0.32616453
3261.282,0.32618125
3262.814,0.32621732
3264.347,0.32640262
3265.882,0.32685414
3267.418,0.32761515
3268.956,0.32849371
3270.495,0.32919152
3272.036,0.32960861
3273.578,0.32984696
3275.122,0.33000387
3276.667,0.33017132
3278.213,0.33051493
3279.761,0.33111352
3281.31,0.33183576
3282.861,0.33254003
3284.413,0.33324998
3285.967,0.33397687
3287.522,0.3345793
3289.079,0.33498347
3290.637,0.33536872
3292.196,0.33595481
3293.757,0.33673118
3295.32,0.33750911
3296.884,0.33810635
3298.449,0.3384156
3300.016,0.33846502
3301.585,0.33848766
3303.155,0.3387579
3304.726,0.3392879
3306.299,0.33982404
3307.873,0.34017828
3309.449,0.34042493
3311.026,0.34073556
3312.605,0.3411732
3314.185,0.34171132
3315.767,0.34231165
3317.351,0.34291117
3318.936,0.34344838
3320.522,0.34397694
3322.11,0.34465196
3323.699,0.34554273
3325.29,0.3465409
3326.882,0.34748296
3328.476,0.34824307
3330.072,0.34868688
3331.669,0.34871158
3333.267,0.34841667
3334.867,0.34810277
3336.469,0.34800287
3338.072,0.34812448
3339.676,0.3484044
3341.282,0.34884964
3342.89,0.3494312
3344.499,0.3500105
3346.11,0.35049483
3347.722,0.35093544
3349.336,0.35137114
3350.952,0.35170717
3352.569,0.35184745
3354.187,0.35181851
3355.807,0.35169364
3357.429,0.3515459
3359.052,0.35152252
3360.677,0.35178456
3362.303,0.35229212
3363.931,0.35281266
3365.56,0.3531828
3367.191,0.35341657
3368.824,0.35355636
3370.458,0.35360032
3372.093,0.35358771
3373.731,0.35357988
3375.37,0.35355733
3377.01,0.35348549
3378.652,0.35344679
3380.296,0.35356639
3381.941,0.35386355
3383.588,0.35429429
3385.236,0.35484405
3386.886,0.35545818
3388.538,0.3559839
3390.191,0.35632173
3391.846,0.35655889
3393.502,0.3568515
3395.16,0.35723442
3396.82,0.35761803
3398.481,0.3579229
3400.144,0.3581675
3401.809,0.35843139
3403.475,0.3587445
3405.143,0.359002
3406.812,0.35902944
3408.483,0.35874589
3410.156,0.35825732
3411.83,0.35778236
3413.506,0.35751271
3415.183,0.35752395
3416.862,0.35780606
3418.543,0.35836638
3420.226,0.35925583
3421.91,0.3604367
3423.596,0.36169075
3425.283,0.36277297
3426.972,0.36363541
3428.663,0.36440861
3430.355,0.36522224
3432.049,0.36613082
3433.745,0.36716176
3435.442,0.36831137
3437.141,0.3695276
3438.842,0.3707613
3440.545,0.37196481
3442.249,0.37299332
3443.954,0.373625
3445.662,0.37378512
3447.371,0.37368564
3449.082,0.37364718
3450.794,0.3738268
3452.509,0.37417612
3454.224,0.37459308
3455.942,0.37500709
3457.661,0.37538393
3459.382,0.37575226
3461.105,0.37620055
3462.829,0.37675069
3464.556,0.377277
3466.283,0.37765266
3468.013,0.37791018
3469.744,0.37815012
3471.477,0.37838394
3473.212,0.37860144
3474.948,0.37888661
3476.686,0.37930102
3478.426,0.37974848
3480.168,0.38011545
3481.911,0.380435
3483.656,0.38079418
3485.403,0.38123572
3487.152,0.38183552
3488.902,0.38264441
3490.654,0.38346326
3492.408,0.38392742
3494.164,0.3839242
3495.921,0.3836909
3497.68,0.3834629
3499.441,0.38330458
3501.204,0.38329742
3502.968,0.38358175
3504.734,0.38416142
3506.502,0.38490397
3508.272,0.38573476
3510.043,0.3866274
3511.817,0.38748467
3513.592,0.38823869
3515.368,0.38897508
3517.147,0.3898014
3518.927,0.39069958
3520.71,0.39160814
3522.494,0.39248463
3524.28,0.39323329
3526.067,0.39377448
3527.857,0.39425161
3529.648,0.39496607
3531.441,0.39602286
3533.236,0.39717627
3535.032,0.39806201
3536.831,0.39849374
3538.631,0.39856054
3540.433,0.398529
3542.237,0.3986384
3544.043,0.39893827
3545.851,0.39933675
3547.66,0.3997601
3549.471,0.40019854
3551.284,0.40064167
3553.099,0.40107444
3554.916,0.40150536
3556.735,0.4019365
3558.555,0.40234728
3560.378,0.40274503
3562.202,0.40315922
3564.028,0.4035739
3565.856,0.4039538
3567.686,0.404333
3569.518,0.4047576
3571.351,0.40516725
3573.187,0.40546318
3575.024,0.40566563
3576.863,0.40588649
3578.704,0.40619426
3580.547,0.40661057
3582.392,0.40714446
3584.239,0.40770644
3586.088,0.40811121
3587.938,0.40830872
3589.791,0.40850304
3591.645,0.40890888
3593.501,0.40949835
3595.359,0.41007743
3597.22,0.41048093
3599.082,0.41062439
3600.946,0.41054568
3602.811,0.41045397
3604.679,0.41056903
3606.549,0.41088179
3608.421,0.41124168
3610.294,0.41163765
3612.17,0.41216948
3614.047,0.41278315
3615.926,0.41328496
3617.808,0.41359716
3619.691,0.41380354
3621.576,0.4139938
3623.463,0.41422865
3625.353,0.4145677
3627.244,0.41498547
3629.137,0.41535519
3631.032,0.41561551
3632.929,0.41583735
3634.828,0.41608973
3636.729,0.41636443
3638.632,0.41665289
3640.537,0.41696294
3642.444,0.41727773
3644.353,0.41762135
3646.263,0.41810464
3648.176,0.41877258
3650.091,0.4194832
3652.008,0.42002792
3653.927,0.42032041
3655.848,0.42042125
3657.771,0.4204683
3659.696,0.4205966
3661.623,0.42084809
3663.552,0.42116083
3665.483,0.42148052
3667.416,0.42182005
3669.351,0.42218507
3671.288,0.42253821
3673.227,0.42287553
3675.168,0.42324249
3677.111,0.42365598
3679.057,0.42408627
3681.004,0.42450249
3682.953,0.42487644
3684.905,0.42518473
3686.858,0.42545163
3688.814,0.42573999
3690.771,0.42607731
3692.731,0.42645025
3694.693,0.4268618
3696.656,0.4273246
3698.622,0.42781474
3700.59,0.42828535
3702.56,0.42869678
3704.532,0.42902123
3706.507,0.42926552
3708.483,0.42949632
3710.461,0.4297859
3712.442,0.43015731
3714.425,0.43059461
3716.409,0.43104671
3718.396,0.43141054
3720.385,0.43162037
3722.376,0.4317504
3724.37,0.43193641
3726.365,0.43223346
3728.362,0.43264455
3730.362,0.43318523
3732.364,0.43380792
3734.368,0.43437323
3736.374,0.4348188
3738.382,0.4352336
3740.392,0.43571559
3742.405,0.43627065
3744.419,0.4368704
3746.436,0.43746018
3748.455,0.43794014
3750.476,0.43827288
3752.499,0.43855157
3754.525,0.4388528
3756.553,0.43914324
3758.582,0.43940022
3760.614,0.43968292
3762.649,0.44001031
3764.685,0.44033195
3766.724,0.44064476
3768.764,0.44100705
3770.807,0.44143027
3772.853,0.44186285
3774.9,0.44223991
3776.95,0.44250251
3779.001,0.44265824
3781.056,0.44283331
3783.112,0.44314256
3785.17,0.4435484
3787.231,0.44395165
3789.294,0.4443382
3791.359,0.44471188
3793.427,0.44502831
3795.496,0.44528709
3797.568,0.44554047
3799.643,0.44576608
3801.719,0.44591215
3803.798,0.44605104
3805.879,0.44629375
3807.962,0.44660653
3810.048,0.44691557
3812.135,0.44726664
3814.225,0.44770381
3816.318,0.44814643
3818.412,0.44853422
3820.509,0.44890774
3822.609,0.44924603
3824.71,0.44945657
3826.814,0.44958668
3828.92,0.44979946
3831.029,0.45011483
3833.139,0.45041385
3835.252,0.45068401
3837.368,0.45103176
3839.486,0.45149307
3841.606,0.45202126
3843.728,0.45258979
3845.853,0.45317316
3847.98,0.45370854
3850.109,0.45417447
3852.241,0.45461379
3854.375,0.45503698
3856.512,0.45540842
3858.65,0.45573915
3860.792,0.45610125
3862.935,0.45654224
3865.081,0.4570465
3867.229,0.45756948
3869.38,0.45807654
3871.533,0.4585611
3873.689,0.45902488
3875.846,0.45944047
3878.007,0.45978371
3880.169,0.46011178
3882.334,0.46051585
3884.502,0.46097594
3886.672,0.46138181
3888.844,0.4616984
3891.019,0.46199624
3893.196,0.46232679
3895.375,0.46269785
3897.557,0.46314327
3899.742,0.46367404
3901.929,0.46418674
3904.118,0.46456963
3906.31,0.46486164
3908.504,0.46517176
3910.7,0.46550298
3912.9,0.46579864
3915.101,0.46607736
3917.305,0.466381
3919.512,0.4666789
3921.721,0.46695923
3923.932,0.46730331
3926.146,0.46773059
3928.363,0.46810516
3930.581,0.46835102
3932.803,0.46859966
3935.027,0.46897581
3937.253,0.46941269
3939.482,0.46983645
3941.714,0.47030939
3943.948,0.47085635
3946.184,0.47137167
3948.423,0.47183344
3950.665,0.47235656
3952.909,0.47294472
3955.156,0.47345033
3957.405,0.47385424
3959.657,0.47429988
3961.911,0.47481987
3964.168,0.47531249
3966.427,0.47578553
3968.689,0.47634078
3970.954,0.47695629
3973.221,0.47753299
3975.491,0.47808218
3977.763,0.47863465
3980.038,0.47908803
3982.315,0.47936066
3984.595,0.47957243
3986.878,0.47988953
3989.163,0.48031468
3991.451,0.48075585
3993.742,0.4811879
3996.035,0.48163048
3998.33,0.48206941
4000.629,0.48247672
4002.93,0.48284609
4005.233,0.48319005
4007.54,0.48352837
4009.849,0.48386571
4012.16,0.48417443
4014.475,0.48443139
4016.791,0.48465099
4019.111,0.48486878
4021.433,0.48513305
4023.758,0.48548563
4026.086,0.48589674
4028.416,0.4862634
4030.749,0.48654902
4033.085,0.486832
4035.423,0.48713851
4037.764,0.4873606
4040.108,0.48745027
4042.454,0.48754084
4044.804,0.48777361
4047.155,0.48814088
4049.51,0.48858416
4051.867,0.48908024
4054.228,0.48958271
4056.59,0.49002432
4058.956,0.49042772
4061.324,0.49087445
4063.695,0.49135607
4066.069,0.49178757
4068.446,0.49215598
4070.825,0.492535
4073.207,0.49295188
4075.592,0.49334844
4077.98,0.49370876
4080.371,0.49411929
4082.764,0.49465034
4085.16,0.49523556
4087.559,0.49575209
4089.961,0.496176
4092.365,0.49655357
4094.773,0.4968921
4097.183,0.49721446
4099.596,0.49763251
4102.012,0.49818608
4104.43,0.49873627
4106.852,0.49918598
4109.276,0.4996325
4111.703,0.50013552
4114.133,0.50058908
4116.566,0.50098083
4119.002,0.50148101
4121.441,0.50212143
4123.882,0.50273088
4126.327,0.50326995
4128.774,0.50385228
4131.224,0.50442132
4133.677,0.50482341
4136.133,0.50515891
4138.592,0.50563857
4141.054,0.50621501
4143.519,0.50674582
4145.987,0.5073129
4148.457,0.50802003
4150.931,0.5087485
4153.407,0.50939686
4155.887,0.51004126
4158.369,0.51067597
4160.854,0.51116322
4163.343,0.51153027
4165.834,0.51193928
4168.328,0.5123853
4170.826,0.51278583
4173.326,0.51323473
4175.829,0.51383346
4178.335,0.51447614
4180.844,0.51506763
4183.356,0.51567867
4185.872,0.51633301
4188.39,0.5169909
4190.911,0.5178094
4193.435,0.51904586
4195.963,0.52076646
4198.493,0.52299142
4201.026,0.5259273
4203.563,0.52968391
4206.102,0.53403174
4208.645,0.53879647
4211.19,0.54409368
4213.739,0.54983541
4216.291,0.55552017
4218.846,0.56086195
4221.404,0.56599047
4223.965,0.57082207
4226.529,0.57507745
4229.096,0.57894965
4231.666,0.58267053
4234.24,0.58566477
4236.816,0.58725557
4239.396,0.58775379
4241.979,0.58759861
4244.565,0.58619445
4247.154,0.5826263
4249.746,0.57698411
4252.341,0.57046983
4254.94,0.56492446
4257.542,0.56227235
4260.146,0.56365194
4262.754,0.56861243
4265.366,0.57513061
4267.98,0.58081339
4270.598,0.58439681
4273.219,0.58599904
4275.843,0.58640399
4278.47,0.58653734
4281.1,0.58700273
4283.734,0.58777825
4286.371,0.58855585
4289.011,0.58919956
4291.655,0.58957786
4294.301,0.58943602
4296.951,0.58881551
4299.604,0.58821586
4302.261,0.58796014
4304.92,0.58777119
4307.583,0.58718757
4310.25,0.58609619
4312.919,0.58465662
4315.592,0.58307388
4318.268,0.58161808
4320.948,0.58055245
4323.631,0.57986209
4326.317,0.57927243
4329.006,0.57858265
4331.699,0.57779585
4334.395,0.5769502
4337.095,0.57610222
4339.797,0.57545133
4342.504,0.57520445
4345.213,0.57532935
4347.926,0.5756636
4350.642,0.5761257
4353.362,0.57661926
4356.085,0.57695755
4358.811,0.57713245
4361.541,0.57739993
4364.275,0.57790817
4367.011,0.5785574
4369.751,0.57933
4372.495,0.58031975
4375.242,0.58139463
4377.992,0.58233473
4380.746,0.58326665
4383.504,0.58443757
4386.264,0.58572161
4389.029,0.58690092
4391.796,0.5881282
4394.567,0.58952474
4397.342,0.59077102
4400.12,0.59169675
4402.902,0.59269753
4405.687,0.59401365
4408.476,0.59529759
4411.268,0.59637766
4414.064,0.59758104
4416.863,0.59896322
4419.666,0.60016274
4422.472,0.60122709
4425.282,0.60253522
4428.096,0.60387796
4430.913,0.60473169
4433.734,0.60531732
4436.558,0.60623384
4439.386,0.60735133
4442.217,0.60817431
4445.052,0.6088654
4447.891,0.60981542
4450.733,0.61081171
4453.579,0.61157748
4456.428,0.61243943
4459.281,0.61361335
4462.138,0.61463602
4464.998,0.61522323
4467.863,0.61584933
4470.73,0.61687137
4473.602,0.61795978
4476.477,0.61881015
4479.355,0.61959521
4482.238,0.62039416
4485.124,0.62098633
4488.014,0.62138728
4490.908,0.62191613
4493.805,0.62263565
4496.706,0.62330646
4499.611,0.62390321
4502.519,0.62464172
4505.431,0.62551336
4508.347,0.62622502
4511.267,0.62668773
4514.191,0.62716939
4517.118,0.62786778
4520.049,0.62859539
4522.984,0.62911412
4525.923,0.62953117
4528.865,0.63005039
4531.812,0.63054886
4534.762,0.63082399
4537.716,0.63107353
4540.674,0.6315941
4543.635,0.63223992
4546.601,0.63272688
4549.57,0.63323131
4552.543,0.6340173
4555.521,0.63484703
4558.502,0.63541093
4561.487,0.6359333
4564.475,0.63663142
4567.468,0.6371267
4570.465,0.63714432
4573.465,0.63722405
4576.47,0.63783099
4579.478,0.63855177
4582.491,0.63900829
4585.507,0.6395324
4588.527,0.64024965
4591.551,0.64064682
4594.58,0.64066758
4597.612,0.64106069
4600.648,0.64207233
4603.688,0.64298871
4606.732,0.64337626
4609.781,0.64360745
4612.833,0.64384182
4615.889,0.64380246
4618.949,0.64371496
4622.014,0.64419515
4625.082,0.64500951
4628.155,0.64535969
4631.231,0.64536666
4634.312,0.64589099
4637.397,0.64687404
4640.485,0.647506
4643.578,0.64778537
4646.675,0.64831266
4649.777,0.64902248
4652.882,0.64943221
4655.991,0.64982567
4659.105,0.65080184
4662.223,0.65202759
4665.345,0.65288787
4668.471,0.65375014
4671.601,0.65516329
4674.735,0.65669019
4677.874,0.65774561
4681.017,0.65859509
4684.164,0.65940765
4687.315,0.65961813
4690.471,0.65924295
4693.63,0.65940459
4696.794,0.66063114
4699.962,0.66211154
4703.135,0.66324546
4706.312,0.66442388
4709.493,0.66576685
4712.678,0.6667003
4715.868,0.66716315
4719.062,0.66777838
4722.26,0.66865939
4725.463,0.66936528
4728.669,0.66992171
4731.881,0.67066246
4735.096,0.6713943
4738.316,0.67174641
4741.541,0.67195027
4744.769,0.67242589
4748.002,0.67312651
4751.24,0.673853
4754.482,0.67467011
4757.728,0.67558694
4760.979,0.67637081
4764.234,0.67694132
4767.494,0.67750821
4770.758,0.67819497
4774.026,0.67893759
4777.299,0.67968715
4780.577,0.68045154
4783.859,0.68119864
4787.145,0.68187411
4790.436,0.68240462
4793.732,0.68274949
4797.032,0.68303549
4800.336,0.68346875
4803.645,0.68404556
4806.959,0.68462482
4810.277,0.68529435
4813.6,0.68624578
4816.927,0.68726635
4820.259,0.68788584
4823.596,0.68803135
4826.937,0.68803663
4830.283,0.68812175
4833.633,0.68838528
4836.988,0.68901755
4840.348,0.68998497
4843.712,0.69087442
4847.081,0.69153176
4850.455,0.69233283
4853.833,0.69342611
4857.216,0.69434438
4860.604,0.69477768
4863.996,0.69509533
4867.393,0.69567237
4870.795,0.69629328
4874.202,0.69666223
4877.613,0.69696853
4881.03,0.69750935
4884.451,0.69828378
4887.876,0.69929858
4891.307,0.70067181
4894.742,0.70215333
4898.182,0.70315979
4901.627,0.70361912
4905.077,0.70418935
4908.532,0.70517669
4911.991,0.70606547
4915.456,0.7065927
4918.925,0.70731088
4922.399,0.70857903
4925.878,0.71000111
4929.362,0.7112143
4932.851,0.71222396
4936.345,0.71281777
4939.844,0.71279617
4943.347,0.71282425
4946.856,0.7137924
4950.37,0.71542502
4953.888,0.71668051
4957.412,0.71726581
4960.941,0.71762509
4964.474,0.71791053
4968.013,0.7181105
4971.556,0.71862648
4975.105,0.71964922
4978.659,0.72049136
4982.218,0.72058573
4985.782,0.72049969
4989.351,0.72092911
4992.925,0.72160838
4996.504,0.72211275
5000.088,0.7226956
5003.678,0.72356037
5007.272,0.72442791
5010.872,0.72532195
5014.477,0.72663343
5018.087,0.728043
5021.703,0.72862698
5025.323,0.72826559
5028.949,0.72777488
5032.58,0.72759762
5036.216,0.72753398
5039.857,0.72759191
5043.504,0.72799541
5047.156,0.72852488
5050.813,0.72880376
5054.475,0.7289843
5058.143,0.72939017
5061.816,0.72986336
5065.495,0.73017636
5069.179,0.73063976
5072.868,0.7316471
5076.562,0.73299211
5080.262,0.73413689
5083.967,0.73481765
5087.678,0.73505418
5091.394,0.73495617
5095.115,0.73481481
5098.842,0.73502188
5102.574,0.7356593
5106.312,0.73642045
5110.055,0.73703236
5113.804,0.73752227
5117.558,0.73801199
5121.318,0.73851346
5125.083,0.73902476
5128.854,0.73970284
5132.63,0.74084813
5136.412,0.74266195
5140.199,0.74494003
5143.992,0.74704412
5147.791,0.74829273
5151.595,0.74846316
5155.405,0.74795958
5159.22,0.74756126
5163.041,0.74791384
5166.868,0.74905711
5170.7,0.75046677
5174.538,0.75169209
5178.382,0.75280109
5182.231,0.75408134
5186.086,0.75567201
5189.947,0.75766339
5193.814,0.76010416
5197.686,0.76269761
5201.564,0.764988
5205.448,0.76693341
5209.338,0.76862983
5213.233,0.76956178
5217.134,0.76915664
5221.041,0.7680716
5224.954,0.76776271
5228.873,0.7687714
5232.798,0.77039054
5236.728,0.77182238
5240.665,0.77278967
5244.607,0.77323126
5248.555,0.77332409
5252.51,0.77361943
5256.47,0.7744333
5260.436,0.77547131
5264.408,0.77652675
5268.386,0.77786651
5272.37,0.77949161
5276.36,0.7809465
5280.356,0.78224025
5284.358,0.7838937
5288.367,0.78572361
5292.381,0.78673057
5296.401,0.78658056
5300.428,0.78608049
5304.46,0.78592697
5308.499,0.78611206
5312.544,0.78660035
5316.595,0.78749677
5320.652,0.78850137
5324.715,0.78914909
5328.785,0.78964992
5332.86,0.79080297
5336.942,0.79316724
5341.031,0.79669038
5345.125,0.80064612
5349.226,0.80351917
5353.333,0.80381185
5357.446,0.80171688
5361.566,0.79918876
5365.692,0.79789259
5369.824,0.7978946
5373.962,0.79840342
5378.107,0.79894944
5382.259,0.79946887
5386.417,0.79991412
5390.581,0.80034556
5394.751,0.80103557
5398.928,0.80215526
5403.112,0.80378839
5407.302,0.8063397
5411.498,0.81020029
5415.701,0.8146134
5419.911,0.81755367
5424.127,0.81756236
5428.349,0.81534964
5432.579,0.81282723
5436.814,0.8113281
5441.057,0.81128251
5445.305,0.81262402
5449.561,0.81501282
5453.823,0.81820109
5458.092,0.82218794
5462.368,0.82642474
5466.65,0.82938249
5470.939,0.83016344
5475.234,0.82982676
5479.537,0.82954424
5483.846,0.82875161
5488.162,0.82676048
5492.484,0.82455781
5496.814,0.82324842
5501.15,0.82282643
5505.493,0.82380185
5509.843,0.8274696
5514.2,0.83339181
5518.564,0.8392406
5522.934,0.84342532
5527.312,0.84555389
5531.696,0.84518804
5536.087,0.84380766
5540.486,0.84444529
5544.891,0.84472591
5549.303,0.8343826
5553.723,0.80562786
5558.149,0.77955693
5562.582,0.74123698
5567.023,0.72279389
5571.47,0.7205355
5575.925,0.71728407
5580.387,0.73486825
5584.856,0.76488154
5589.332,0.78508515
5593.815,0.79352396
5598.305,0.79969043
5602.803,0.80563907
5607.307,0.8077106
5611.819,0.80936301
5616.339,0.81454928
5620.865,0.81979189
5625.399,0.82138597
5629.94,0.8231336
5634.489,0.82776836
5639.044,0.83085894
5643.607,0.8287028
5648.178,0.82546355
5652.756,0.82423192
5657.341,0.82286156
5661.934,0.82103193
5666.534,0.82225324
5671.142,0.82630351
5675.757,0.82845991
5680.379,0.82762674
5685.01,0.8275646
5689.647,0.82899042
5694.293,0.82938005
5698.945,0.82970154
5703.606,0.83311838
5708.274,0.83819699
5712.949,0.8402811
5717.633,0.83941923
5722.324,0.83910998
5727.022,0.83957356
5731.729,0.83914826
5736.443,0.83934333
5741.165,0.84185119
5745.894,0.84461906
5750.631,0.84595551
5755.377,0.84873291
5760.13,0.85448755
5764.89,0.85860204
5769.659,0.85715661
5774.436,0.85355764
5779.22,0.85106821
5784.012,0.84826274
5788.813,0.84487767
5793.621,0.84396126
5798.437,0.84617864
5803.262,0.84894015
5808.094,0.85235995
5812.934,0.85890719
5817.782,0.86640842
5822.639,0.86887863
5827.503,0.86626926
5832.376,0.86325139
5837.257,0.860927
5842.146,0.85854296
5847.043,0.85864267
5851.948,0.86275325
5856.862,0.86745751
5861.783,0.86984651
5866.714,0.87286785
5871.652,0.87843683
5876.598,0.88296168
5881.553,0.88367441
5886.517,0.8831722
5891.488,0.88198354
5896.468,0.87749698
5901.457,0.87143456
5906.454,0.86864185
5911.459,0.86926252
5916.473,0.87067195
5921.495,0.87385386
5926.526,0.8807682
5931.565,0.88738411
5936.613,0.88754205
5941.67,0.88301687
5946.735,0.87923463
5951.809,0.87709685
5956.891,0.87606663
5961.982,0.87750197
5967.082,0.88065576
5972.19,0.8820471
5977.307,0.8814025
5982.433,0.88180035
5987.568,0.88270918
5992.711,0.88096707
5997.864,0.87800393
6003.025,0.87765861
6008.195,0.87903102
6013.374,0.87840851
6018.562,0.87639628
6023.759,0.87655934
6028.964,0.8800001
6034.179,0.88587495
6039.403,0.89347789
6044.636,0.89955747
6049.878,0.89956568
6055.129,0.89545934
6060.389,0.89350207
6065.658,0.89446106
6070.936,0.89405394
6076.224,0.8904761
6081.52,0.88660205
6086.826,0.88486611
6092.141,0.88577006
6097.466,0.88973207
6102.8,0.8956747
6108.143,0.89937979
6113.495,0.89791801
6118.857,0.89383059
6124.228,0.89077759
6129.609,0.88952035
6134.999,0.88991071
6140.398,0.8921115
6145.807,0.89489721
6151.226,0.89609627
6156.654,0.89560678
6162.091,0.89520402
6167.539,0.8956983
6172.996,0.89662724
6178.462,0.89753969
6183.938,0.89767008
6189.424,0.8961176
6194.92,0.89367044
6200.425,0.89237335
6205.94,0.89268259
6211.465,0.89314451
6217.0,0.89289497
6222.544,0.89269335
6228.099,0.89300621
6233.663,0.89319232
6239.237,0.89294803
6244.822,0.89286486
6250.416,0.89316923
6256.02,0.89353223
6261.635,0.89406801
6267.259,0.89518549
6272.893,0.89635255
6278.538,0.89660687
6284.193,0.89612108
6289.858,0.89590138
6295.533,0.89607736
6301.218,0.89613689
6306.914,0.89634497
6312.619,0.89738713
6318.336,0.8991189
6324.062,0.90124808
6329.799,0.90408356
6335.546,0.90707842
6341.304,0.90824757
6347.072,0.90739994
6352.851,0.9071547
6358.64,0.90880356
6364.44,0.91038269
6370.25,0.91006754
6376.071,0.90873415
6381.903,0.90786744
6387.745,0.90824311
6393.598,0.91119812
6399.461,0.91752023
6405.335,0.92417246
6411.221,0.92606743
6417.116,0.92310119
6423.023,0.91921416
6428.941,0.91596287
6434.869,0.91330865
6440.809,0.9123296
6446.759,0.91322401
6452.72,0.91426729
6458.693,0.91516015
6464.676,0.91793297
6470.671,0.9228034
6476.676,0.92691401
6482.693,0.92838723
6488.721,0.92784953
6494.76,0.92560928
6500.81,0.92220851
6506.872,0.92017304
6512.945,0.92070243
6519.029,0.92154129
6525.124,0.92086993
6531.231,0.92042904
6537.35,0.92174744
6543.48,0.92357435
6549.621,0.92510584
6555.774,0.92748066
6561.938,0.930348
6568.114,0.93150231
6574.302,0.93104668
6580.501,0.93082003
6586.712,0.93041446
6592.934,0.92865774
6599.169,0.92714764
6605.415,0.92801921
6611.673,0.93079398
6617.943,0.93400911
6624.224,0.93714707
6630.518,0.93856935
6636.823,0.93594791
6643.141,0.93108932
6649.47,0.92846846
6655.812,0.9291024
6662.166,0.93061686
6668.532,0.9313423
6674.91,0.93147167
6681.3,0.93110559
6687.702,0.93049713
6694.117,0.93116129
6700.544,0.93361457
6706.983,0.93557873
6713.435,0.93501401
6719.899,0.93314539
6726.375,0.93185417
6732.864,0.93105249
6739.365,0.93047805
6745.879,0.93097403
6752.406,0.93268628
6758.945,0.93454892
6765.497,0.93633423
6772.062,0.93859168
6778.639,0.94030934
6785.229,0.9396128
6791.832,0.93716344
6798.448,0.93541127
6805.076,0.93514262
6811.718,0.93555282
6818.372,0.93628542
6825.039,0.93732958
6831.72,0.93831711
6838.413,0.93948215
6845.12,0.94171397
6851.84,0.94436255
6858.573,0.94490257
6865.319,0.94266781
6872.078,0.94006311
6878.851,0.93877476
6885.637,0.93841526
6892.437,0.93853005
6899.25,0.93911238
6906.076,0.93949024
6912.916,0.93896479
6919.769,0.93830157
6926.636,0.93866416
6933.517,0.93995475
6940.411,0.94146992
6947.319,0.94298113
6954.241,0.94404271
6961.176,0.94391908
6968.125,0.94311255
6975.089,0.94298087
6982.066,0.94361237
6989.057,0.94397416
6996.062,0.94387395
7003.081,0.94401641
7010.114,0.9445449
7017.161,0.94526332
7024.223,0.94654152
7031.298,0.94839799
7038.388,0.94965764
7045.492,0.9495159
7052.611,0.94873144
7059.743,0.94813353
7066.891,0.94766179
7074.052,0.94735037
7081.229,0.94760874
7088.419,0.94828747
7095.625,0.94883487
7102.845,0.94930887
7110.079,0.95008247
7117.329,0.95095902
7124.593,0.95164099
7131.872,0.95241994
7139.166,0.95352807
7146.475,0.95448165
7153.799,0.95475496
7161.137,0.9544791
7168.491,0.95408438
7175.86,0.95384509
7183.244,0.95395634
7190.643,0.95448236
7198.058,0.95513424
7205.487,0.95547137
7212.933,0.95538187
7220.393,0.95518857
7227.869,0.95527757
7235.36,0.95573889
7242.867,0.9563937
7250.39,0.95711787
7257.928,0.95789323
7265.481,0.95849497
7273.051,0.9586157
7280.636,0.95843119
7288.237,0.95843566
7295.854,0.95870172
7303.487,0.95901058
7311.135,0.95952948
7318.8,0.96048458
7326.481,0.96140548
7334.178,0.96165432
7341.891,0.96139869
7349.62,0.96116168
7357.366,0.96103293
7365.128,0.96104316
7372.906,0.96149572
7380.701,0.96230521
7388.512,0.96292515
7396.34,0.9632672
7404.184,0.96375213
7412.045,0.96434352
7419.922,0.96465379
7427.817,0.96484349
7435.728,0.96538074
7443.656,0.96616375
7451.601,0.9667853
7459.562,0.96719438
7467.541,0.96744595
7475.537,0.96740085
7483.55,0.96717331
7491.58,0.96717208
7499.628,0.9674663
7507.692,0.96775938
7515.774,0.96796927
7523.874,0.96823248
7531.99,0.9685245
7540.125,0.96878217
7548.277,0.96908351
7556.446,0.96940839
7564.633,0.96962002
7572.838,0.96977683
7581.061,0.97000226
7589.302,0.97018403
7597.56,0.97022345
7605.837,0.97027567
7614.131,0.97038082
7622.444,0.97034989
7630.774,0.97021346
7639.123,0.97022609
7647.491,0.97036975
7655.876,0.97046209
7664.28,0.97062321
7672.702,0.971023
7681.143,0.9714462
7689.602,0.97167643
7698.08,0.9718732
7706.577,0.9721332
7715.093,0.97224338
7723.627,0.97220447
7732.18,0.97235107
7740.752,0.97274477
7749.343,0.97310319
7757.953,0.97336698
7766.583,0.97371883
7775.231,0.97410628
7783.899,0.97435599
7792.586,0.97457427
7801.292,0.9749359
7810.018,0.97534141
7818.764,0.97567204
7827.529,0.97605408
7836.313,0.97657676
7845.117,0.97709555
7853.942,0.97752114
7862.786,0.9779666
7871.649,0.97849839
7880.533,0.97902654
7889.437,0.97949132
7898.361,0.97991006
7907.305,0.98027297
7916.27,0.98056531
7925.254,0.98085282
7934.26,0.98117796
7943.285,0.98149552
7952.331,0.98178053
7961.398,0.98211598
7970.485,0.98256429
7979.594,0.98306923
7988.723,0.98352899
7997.872,0.98389414
8007.043,0.98416681
8016.235,0.98438968
8025.448,0.98463995
8034.682,0.98496559
8043.937,0.98533044
8053.214,0.98569184
8062.512,0.98606096
8071.832,0.98640818
8081.173,0.98662697
8090.535,0.9867108
8099.92,0.98683292
8109.326,0.98710669
8118.754,0.98743605
8128.204,0.98773425
8137.676,0.98805108
8147.169,0.98837425
8156.686,0.98860609
8166.224,0.98880945
8175.785,0.98916055
8185.368,0.98960222
8194.973,0.98992246
8204.601,0.99013726
8214.252,0.99040829
8223.925,0.99068467
8233.621,0.99085211
8243.34,0.99104287
8253.082,0.99140379
8262.847,0.99179234
8272.635,0.99206107
8282.446,0.99233634
8292.281,0.99271488
8302.139,0.99305981
8312.02,0.99332217
8321.925,0.99367085
8331.853,0.99412918
8341.805,0.9945019
8351.781,0.99474225
8361.781,0.99501857
8371.804,0.99537126
8381.852,0.99567693
8391.924,0.99591959
8402.02,0.9962059
8412.14,0.99652711
8422.285,0.99677257
8432.454,0.99692576
8442.648,0.99707289
8452.866,0.99724598
8463.109,0.99741561
8473.377,0.99760369
8483.67,0.99788049
8493.988,0.99819481
8504.331,0.99838845
8514.699,0.99841603
8525.092,0.99843241
8535.511,0.99853597
8545.955,0.99865501
8556.425,0.99876449
8566.921,0.9989737
8577.442,0.99926262
8587.989,0.99945264
8598.562,0.99951589
8609.161,0.99959738
8619.786,0.99969745
8630.437,0.99971979
8641.115,0.9997541
8651.819,0.99995485
8662.55,0.0100023901
8673.307,0.0100047567
8684.091,0.0100073318
8694.902,0.0100104963
8705.739,0.0100129047
8716.604,0.0100143613
8727.496,0.0100165706
8738.415,0.0100197839
8749.361,0.0100226788
8760.335,0.0100252977
8771.336,0.0100284055
8782.365,0.0100313594
8793.422,0.0100338583
8804.507,0.0100370881
8815.619,0.0100409464
8826.76,0.0100440188
8837.928,0.0100469192
8849.125,0.0100511168
8860.351,0.0100553074
8871.604,0.0100578326
8882.887,0.0100602756
8894.198,0.0100639904
8905.538,0.0100671477
8916.907,0.0100691248
8928.305,0.0100722098
8939.732,0.0100761502
8951.188,0.0100779246
8962.673,0.010078219
8974.189,0.0100800998
8985.733,0.010082457
8997.308,0.0100823392
9008.912,0.0100814499
9020.546,0.0100821678
9032.21,0.0100820882
9043.905,0.0100792503
9055.629,0.0100769736
9067.384,0.0100772433
9079.17,0.0100770641
9090.986,0.0100751984
9102.833,0.010074447
9114.711,0.0100744354
9126.62,0.0100714463
9138.56,0.0100660401
9150.531,0.0100622786
9162.534,0.010060053
9174.568,0.0100564975
9186.634,0.0100524639
9198.731,0.0100505218
9210.86,0.0100494698
9223.022,0.0100473464
9235.215,0.0100455454
9247.441,0.0100453791
9259.699,0.0100448154
9271.99,0.0100425543
9284.313,0.0100406678
9296.669,0.0100407014
9309.058,0.0100411518
9321.48,0.0100406425
9333.935,0.0100399885
9346.423,0.0100399469
9358.945,0.0100399348
9371.5,0.0100399649
9384.089,0.0100411513
9396.712,0.0100436005
9409.369,0.0100456901
9422.06,0.0100464359
9434.785,0.0100467556
9447.545,0.0100477404
9460.339,0.0100491276
9473.167,0.0100505981
9486.031,0.010052629
9498.929,0.010055163
9511.863,0.010057093
9524.832,0.0100581904
9537.836,0.0100595459
9550.876,0.0100616448
9563.951,0.0100637393
9577.062,0.010065613
9590.209,0.0100675112
9603.393,0.0100688602
9616.612,0.0100690021
9629.868,0.0100688514
9643.16,0.0100697095
9656.49,0.0100715482
9669.856,0.0100736623
9683.259,0.0100758627
9696.699,0.0100777875
9710.176,0.0100787814
9723.691,0.0100789355
9737.244,0.0100790354
9750.834,0.0100791295
9764.463,0.0100787581
9778.129,0.0100778902
9791.834,0.0100766633
9805.577,0.0100749554
9819.359,0.0100732621
9833.18,0.0100724119
9847.039,0.0100723431
9860.938,0.0100722011
9874.875,0.0100720077
9888.853,0.0100723709
9902.869,0.0100732192
9916.926,0.0100738659
9931.022,0.0100742123
9945.159,0.0100744309
9959.336,0.0100744102
9973.553,0.0100742832
9987.811,0.0100748803
10002.109,0.0100765934
10016.449,0.0100786475
10030.83,0.0100800153
10045.252,0.0100806952
10059.715,0.0100812926
10074.221,0.0100821086
10088.768,0.0100831941
10103.357,0.0100849739
10117.988,0.010087649
10132.662,0.0100905639
10147.378,0.0100929666
10162.137,0.0100951971
10176.939,0.0100980008
10191.784,0.01010119
10206.672,0.0101041424
10221.604,0.0101069566
10236.58,0.0101097521
10251.6,0.0101119281
10266.663,0.010113277
10281.771,0.0101146547
10296.924,0.0101164316
10312.121,0.0101179602
10327.363,0.010119047
10342.65,0.0101204267
10357.982,0.010122143
10373.36,0.0101234798
10388.784,0.0101243672
10404.253,0.0101252775
10419.769,0.0101260321
10435.331,0.0101262696
10450.939,0.0101260748
10466.594,0.0101255092
10482.296,0.0101245932
10498.045,0.0101239052
10513.842,0.0101238108
10529.686,0.0101238983
10545.577,0.0101242509
10561.517,0.0101256384
10577.505,0.0101275535
10593.542,0.0101286483
10609.627,0.0101290894
10625.761,0.0101295936
10641.944,0.0101290795
10658.176,0.0101269328
10674.458,0.0101251733
10690.79,0.010124943
10707.172,0.010124259
10723.604,0.0101226783
10740.086,0.01012267
10756.619,0.0101242093
10773.203,0.0101242371
10789.839,0.0101230438
10806.525,0.0101233679
10823.264,0.0101239979
10840.054,0.0101222446
10856.896,0.0101206357
10873.791,0.0101222219
10890.738,0.0101240308
10907.738,0.0101229655
10924.791,0.010122176
10941.898,0.010123949
10959.058,0.0101249277
10976.272,0.0101238876
10993.541,0.0101246897
11010.863,0.0101275671
11028.24,0.0101283065
11045.672,0.0101271506
11063.16,0.0101277612
11080.702,0.0101285308
11098.301,0.0101261158
11115.955,0.0101234516
11133.665,0.0101243714
11151.432,0.0101259567
11169.256,0.0101249439
11187.137,0.0101236682
11205.075,0.0101236806
11223.07,0.010122004
11241.124,0.0101183558
11259.235,0.0101163162
11277.405,0.0101161204
11295.634,0.0101148907
11313.921,0.0101132519
11332.268,0.0101132856
11350.675,0.0101132369
11369.141,0.0101108414
11387.667,0.0101078405
11406.254,0.0101059685
11424.901,0.010103982
11443.61,0.0101014009
11462.38,0.0100997191
11481.211,0.0100985398
11500.105,0.0100960131
11519.06,0.0100926387
11538.079,0.010090241
11557.16,0.0100885766
11576.304,0.0100869349
11595.511,0.0100860792
11614.783,0.0100862167
11634.118,0.0100857358
11653.518,0.0100839966
11672.983,0.010082347
11692.513,0.0100814998
11712.108,0.0100804558
11731.769,0.0100790262
11751.496,0.0100783942
11771.29,0.0100788998
11791.15,0.0100793079
11811.077,0.0100791841
11831.072,0.0100795869
11851.134,0.0100810451
11871.265,0.0100825602
11891.464,0.0100839147
11911.731,0.0100860363
11932.068,0.010088287
11952.475,0.0100884821
11972.951,0.0100872328
11993.497,0.010087698
12014.114,0.0100902877
12034.802,0.0100919608
12055.562,0.0100920496
12076.393,0.0100924154
12097.296,0.0100924975
12118.271,0.0100904068
12139.32,0.010088109
12160.441,0.0100879619
12181.636,0.0100874933
12202.905,0.0100843503
12224.249,0.0100820056
12245.667,0.0100829435
12267.16,0.0100834339
12288.729,0.0100809855
12310.373,0.0100792264
12332.094,0.0100797837
12353.892,0.0100787542
12375.767,0.0100749618
12397.719,0.010072131
12419.75,0.0100707694
12441.859,0.0100680955
12464.046,0.0100656797
12486.313,0.0100670944
12508.659,0.0100698492
12531.086,0.0100690522
12553.593,0.0100655731
12576.18,0.0100629959
12598.85,0.0100609872
12621.601,0.0100582374
12644.434,0.0100565755
12667.35,0.0100571379
12690.349,0.0100572594
12713.432,0.0100556273
12736.599,0.0100547863
12759.85,0.010056166
12783.187,0.0100576991
12806.608,0.0100583547
12830.116,0.0100597217
12853.71,0.0100622108
12877.391,0.0100639188
12901.159,0.0100643152
12925.016,0.010064882
12948.96,0.0100660729
12972.993,0.0100670715
12997.116,0.0100685734
13021.329,0.0100717707
13045.631,0.0100754814
13070.025,0.0100774416
13094.51,0.0100778818
13119.087,0.0100782297
13143.756,0.010078459
13168.518,0.0100785711
13193.373,0.0100802474
13218.322,0.0100834462
13243.366,0.0100855588
13268.505,0.0100860374
13293.74,0.0100874331
13319.07,0.0100898799
13344.497,0.0100909399
13370.021,0.0100910032
13395.644,0.0100922654
13421.364,0.0100932157
13447.183,0.0100918956
13473.102,0.0100906551
13499.121,0.0100910218
13525.24,0.0100893211
13551.461,0.0100846228
13577.783,0.0100815894
13604.208,0.0100811369
13630.736,0.0100784708
13657.367,0.0100740367
13684.103,0.0100723913
13710.943,0.0100710523
13737.889,0.010064147
13764.941,0.0100554129
13792.099,0.0100515233
13819.365,0.0100499387
13846.739,0.0100465924
13874.221,0.0100456459
13901.813,0.0100484346
13929.515,0.0100476907
13957.327,0.0100413155
13985.25,0.0100367464
14013.285,0.0100351172
14041.433,0.0100308157
14069.694,0.0100264182
14098.068,0.0100284484
14126.558,0.0100315
14155.163,0.0100275076
14183.883,0.0100209658
14212.721,0.0100179138
14241.676,0.010013483
14270.749,0.0100062011
14299.94,0.0100041962
14329.252,0.0100074823
14358.684,0.0100056804
14388.237,0.99994386
14417.911,0.99975134
14447.709,0.99963975
14477.629,0.99875694
14507.674,0.99776419
14537.844,0.99740153
14568.139,0.99690415
14598.561,0.99580775
14629.109,0.99519731
14659.786,0.99518555
14690.592,0.9944504
14721.528,0.99304461
14752.594,0.99245148
14783.791,0.9922089
14815.121,0.99085715
14846.583,0.98900996
14878.179,0.98794061
14909.91,0.98648385
14941.777,0.98376524
14973.78,0.98163151
15005.92,0.98120899
15038.198,0.98008833
15070.616,0.97745646
15103.173,0.97529813
15135.871,0.97432382
15168.712,0.97202665
15201.695,0.96825734
15234.821,0.96442214
15268.092,0.96026448
15301.509,0.95359545
15335.072,0.94636892
15368.783,0.94029445
15402.642,0.93468011
15436.651,0.92597306
15470.81,0.91709585
15505.12,0.90898541
15539.583,0.90189182
15574.199,0.89157127
15608.97,0.88064018
15643.896,0.86710619
15678.979,0.85457037
15714.22,0.83872453
15749.619,0.82471251
15785.178,0.81080875
15820.897,0.79948003
15856.779,0.78730844
15892.824,0.77996044
15929.033,0.76972597
15965.407,0.75329271
