Database of Origin,University of Winnipeg Spectrophotometer Facility
Sample Description,16.11. Meteorites - HEDs 16.11.3. NASA samples (4) Bruker Vertex 70 FTIR spectrometer
Other Information,MIR Glowbar KBr Beam Splitter MCT cryo cooled Dectect.
Date Added,2018-07-23 23:49:05.742198

Data ID,FTIR_MET2_6_30      
Sample ID,NWA 1943
Mineral Name,Howardite
Grain Size,Surface
Viewing Geometry,i30/ e0
Resolution,7.71cm-1

Wavelength
1672.316177,0.22886
1674.476792,0.22822
1676.642997,0.22747
1678.814814,0.22606
1680.992268,0.22463
1683.175374,0.22409
1685.364158,0.22348
1687.558643,0.22277
1689.758849,0.22179
1691.9648,0.22038
1694.176519,0.21912
1696.394027,0.2186
1698.61735,0.21896
1700.846507,0.21851
1703.081521,0.2167
1705.322418,0.21522
1707.569219,0.21454
1709.821949,0.21373
1712.08063,0.21278
1714.345286,0.21195
1716.615945,0.21163
1718.892624,0.21144
1721.175349,0.21073
1723.464146,0.21021
1725.759038,0.20946
1728.060049,0.20819
1730.367205,0.20713
1732.68053,0.20603
1735.000051,0.20486
1737.325788,0.20447
1739.657769,0.20472
1741.996018,0.20477
1744.340562,0.20402
1746.691425,0.20256
1749.048633,0.20159
1751.412211,0.20111
1753.78219,0.20062
1756.158588,0.20024
1758.541435,0.19978
1760.930758,0.19892
1763.326581,0.19803
1765.728933,0.19724
1768.13784,0.19629
1770.553328,0.19577
1772.975429,0.19544
1775.404162,0.1952
1777.839558,0.1952
1780.281645,0.19438
1782.73045,0.19309
1785.186001,0.19237
1787.648326,0.19174
1790.117454,0.19107
1792.593414,0.19057
1795.07623,0.18984
1797.565933,0.18913
1800.062552,0.18843
1802.566116,0.18724
1805.076653,0.18631
1807.594193,0.18613
1810.118766,0.18584
1812.650403,0.18505
1815.189129,0.18422
1817.734976,0.18378
1820.287974,0.18385
1822.848154,0.18366
1825.415545,0.18277
1827.990179,0.18197
1830.572085,0.18157
1833.161299,0.18133
1835.757844,0.18095
1838.361756,0.18004
1840.973065,0.1792
1843.591803,0.17894
1846.218001,0.17873
1848.851693,0.17842
1851.492909,0.17791
1854.141686,0.17712
1856.798049,0.17657
1859.462034,0.17629
1862.133675,0.17578
1864.813003,0.17497
1867.500053,0.17459
1870.194858,0.17471
1872.897451,0.17437
1875.60787,0.17384
1878.326142,0.17343
1881.052305,0.17281
1883.786392,0.17222
1886.528439,0.17177
1889.27848,0.17129
1892.03655,0.17082
1894.802685,0.17037
1897.576923,0.17003
1900.359294,0.16999
1903.149835,0.16996
1905.948585,0.16907
1908.755578,0.16763
1911.570851,0.16689
1914.394441,0.16697
1917.226385,0.1668
1920.066724,0.16654
1922.915487,0.16675
1925.772716,0.16692
1928.638449,0.16665
1931.512723,0.16597
1934.395578,0.16555
1937.28705,0.16571
1940.18718,0.16582
1943.09601,0.16558
1946.013571,0.16529
1948.939907,0.16519
1951.875057,0.1652
1954.819061,0.16511
1957.771959,0.16479
1960.733792,0.16415
1963.7046,0.16368
1966.684429,0.1635
1969.67331,0.16323
1972.671291,0.16302
1975.678411,0.16299
1978.694713,0.16307
1981.72024,0.16312
1984.755033,0.163
1987.799135,0.1629
1990.852594,0.16315
1993.915443,0.16356
1996.987732,0.16347
2000.069502,0.16301
2003.160799,0.16272
2006.261667,0.1626
2009.37215,0.16285
2012.492292,0.16304
2015.622144,0.163
2018.761742,0.16295
2021.911136,0.16255
2025.070371,0.16225
2028.239495,0.16263
2031.418553,0.16304
2034.607593,0.16292
2037.806661,0.16276
2041.015809,0.16318
2044.235076,0.16379
2047.464515,0.16392
2050.704173,0.16392
2053.9541,0.16423
2057.214344,0.16483
2060.484955,0.1656
2063.765981,0.16614
2067.057478,0.1662
2070.359486,0.16606
2073.672061,0.16611
2076.995253,0.16643
2080.329113,0.16678
2083.673693,0.16694
2087.029044,0.16721
2090.39522,0.16772
2093.772276,0.16791
2097.160256,0.16808
2100.559219,0.16862
2103.969217,0.16905
2107.390304,0.16914
2110.822536,0.16948
2114.265965,0.17032
2117.720647,0.1708
2121.186643,0.17074
2124.663997,0.17084
2128.152772,0.17139
2131.653022,0.17212
2135.164806,0.17279
2138.68818,0.17325
2142.223201,0.17362
2145.769927,0.17416
2149.328422,0.17456
2152.898735,0.17476
2156.480928,0.17543
2160.075063,0.17658
2163.681197,0.17756
2167.299393,0.17793
2170.929709,0.17808
2174.572208,0.17861
2178.226956,0.17918
2181.894004,0.17947
2185.57342,0.17981
2189.265266,0.18049
2192.969606,0.18145
2196.686503,0.18225
2200.416021,0.18278
2204.158225,0.18343
2207.913183,0.1842
2211.680953,0.18482
2215.461603,0.18528
2219.255201,0.1858
2223.061813,0.18661
2226.881507,0.18754
2230.714349,0.18838
2234.560407,0.18916
2238.419756,0.18979
2242.292454,0.19033
2246.178575,0.19114
2250.07819,0.19217
2253.991369,0.19308
2257.918183,0.19361
2261.858702,0.19409
2265.813,0.19489
2269.781154,0.19562
2273.763225,0.19626
2277.759293,0.19681
2281.769432,0.19729
2285.793716,0.19804
2289.832221,0.1989
2293.88502,0.19947
2297.952192,0.2002
2302.033816,0.20133
2306.129961,0.20224
2310.240709,0.20278
2314.366139,0.20341
2318.506328,0.20417
2322.661356,0.20493
2326.831304,0.20577
2331.016252,0.20664
2335.216286,0.20754
2339.431477,0.20846
2343.661913,0.20911
2347.907677,0.20967
2352.168852,0.21055
2356.445521,0.21155
2360.737771,0.21237
2365.045686,0.21317
2369.369358,0.21409
2373.708861,0.21492
2378.06429,0.21544
2382.435731,0.21582
2386.823273,0.21641
2391.227005,0.21741
2395.647017,0.21865
2400.0834,0.21971
2404.53625,0.22037
2409.005647,0.22079
2413.491691,0.22144
2417.994473,0.22228
2422.514088,0.22315
2427.050631,0.2241
2431.604196,0.22507
2436.17488,0.22605
2440.762785,0.22687
2445.367997,0.22745
2449.99062,0.22812
2454.630753,0.22906
2459.288496,0.22985
2463.963948,0.23045
2468.657212,0.23115
2473.368389,0.23192
2478.097588,0.23267
2482.844901,0.23325
2487.610438,0.23374
2492.394303,0.23451
2497.196603,0.23537
2502.017445,0.23624
2506.856937,0.2372
2511.715186,0.23792
2516.592308,0.23831
2521.488402,0.23862
2526.403583,0.2392
2531.337964,0.24014
2536.291658,0.24107
2541.264778,0.24175
2546.257439,0.24225
2551.269756,0.24271
2556.301852,0.2431
2561.353831,0.24403
2566.425818,0.24528
2571.517932,0.24577
2576.630293,0.24619
2581.763021,0.24699
2586.91624,0.24778
2592.090072,0.2481
2597.284647,0.24828
2602.500077,0.24866
2607.736495,0.24911
2612.994027,0.24922
2618.272802,0.24942
2623.572949,0.24952
2628.894597,0.24991
2634.237878,0.2504
2639.60293,0.25021
2644.989874,0.25013
2650.398851,0.25053
2655.829995,0.2513
2661.283444,0.25232
2666.759335,0.25365
2672.257807,0.25469
2677.779,0.25485
2683.323062,0.25446
2688.890121,0.25375
2694.480328,0.25276
2700.093828,0.25159
2705.730766,0.25027
2711.39129,0.24835
2717.075548,0.24596
2722.783689,0.24344
2728.515871,0.24134
2734.272233,0.23935
2740.052934,0.2358
2745.85813,0.23165
2751.687977,0.22808
2757.542631,0.22393
2763.422252,0.21973
2769.327,0.21597
2775.257043,0.2129
2781.212529,0.21018
2787.19363,0.20725
2793.200512,0.20449
2799.233341,0.20246
2805.292287,0.20038
2811.377519,0.19807
2817.489208,0.1964
2823.627536,0.1953
2829.79266,0.19398
2835.984766,0.1924
2842.20403,0.19103
2848.450631,0.18997
2854.72475,0.1888
2861.02657,0.18756
2867.356274,0.1865
2873.714055,0.18559
2880.100086,0.18486
2886.514561,0.1842
2892.957673,0.18327
2899.429613,0.18241
2905.930575,0.18175
2912.460755,0.18089
2919.020351,0.18008
2925.609569,0.17945
2932.228594,0.17887
2938.877637,0.17859
2945.556904,0.17835
2952.266599,0.17799
2959.006933,0.1777
2965.778115,0.17756
2972.580357,0.17741
2979.413883,0.17745
2986.278891,0.17784
2993.175608,0.17826
3000.104254,0.17853
3007.065051,0.1787
3014.058225,0.17901
3021.084,0.17927
3028.142607,0.17941
3035.234283,0.17962
3042.359245,0.17999
3049.517737,0.18027
3056.709994,0.18027
3063.936258,0.18037
3071.196769,0.18082
3078.491772,0.18132
3085.821513,0.18165
3093.186251,0.18196
3100.586217,0.18256
3108.021674,0.18331
3115.492879,0.18398
3123.000089,0.18459
3130.543567,0.18515
3138.123574,0.18587
3145.740377,0.18686
3153.394256,0.18777
3161.08546,0.18863
3168.814274,0.18944
3176.580974,0.19008
3184.38584,0.19072
3192.229154,0.19124
3200.1112,0.19172
3208.032266,0.19243
3215.992653,0.19317
3223.992633,0.19369
3232.032514,0.19414
3240.112594,0.19463
3248.233176,0.19526
3256.394564,0.19623
3264.597068,0.19723
3272.840999,0.19765
3281.126681,0.19759
3289.454413,0.19765
3297.824524,0.19803
3306.237341,0.19837
3314.693189,0.19844
3323.192401,0.19841
3331.735311,0.19838
3340.322256,0.19796
3348.95359,0.19685
3357.629634,0.19466
3366.350748,0.19123
3375.117285,0.18822
3383.929601,0.18687
3392.788054,0.18508
3401.693008,0.18048
3410.64483,0.17431
3419.643903,0.17101
3428.690579,0.17417
3437.785247,0.18134
3446.928291,0.18731
3456.120099,0.1906
3465.36106,0.19195
3474.651571,0.19202
3483.99203,0.19072
3493.382855,0.18766
3502.824429,0.1857
3512.317177,0.18908
3521.861515,0.19556
3531.457866,0.1999
3541.106657,0.20173
3550.808317,0.20248
3560.563284,0.20282
3570.372009,0.20296
3580.234914,0.20302
3590.15246,0.20333
3600.125104,0.20357
3610.153306,0.20363
3620.237532,0.20369
3630.378252,0.20363
3640.575942,0.20341
3650.831097,0.20318
3661.144177,0.20302
3671.515689,0.20269
3681.946129,0.20231
3692.436003,0.20223
3702.985818,0.20232
3713.596091,0.20233
3724.267342,0.2022
3735.000113,0.20192
3745.79491,0.20165
3756.652285,0.20134
3767.572784,0.20097
3778.556959,0.2007
3789.605369,0.2005
3800.71858,0.20033
3811.897162,0.20018
3823.141709,0.20006
3834.452778,0.19965
3845.830974,0.19893
3857.276898,0.19826
3868.791155,0.19778
3880.37436,0.19734
3892.027134,0.19701
3903.750106,0.19665
3915.543926,0.19616
3927.409209,0.1959
3939.346621,0.19568
3951.356822,0.19515
3963.44048,0.1944
3975.598271,0.19361
3987.830879,0.19289
4000.138997,0.19219
4012.523342,0.19169
4024.984593,0.19124
4037.523484,0.19052
4050.140742,0.18973
4062.837106,0.18893
4075.613322,0.18808
4088.470144,0.18756
4101.408338,0.18726
4114.428697,0.1868
4127.531971,0.1862
4140.718972,0.18538
4153.990505,0.18429
4167.347385,0.18353
4180.790439,0.18346
4194.320503,0.18433
4207.938425,0.18678
4221.64508,0.19072
4235.441304,0.19241
4249.327994,0.19015
4263.306045,0.18822
4277.376359,0.18687
4291.539855,0.18465
4305.79746,0.18148
4320.150116,0.17822
4334.598795,0.17546
4349.144426,0.17324
4363.788008,0.17159
4378.530532,0.17047
4393.373006,0.16978
4408.316449,0.16925
4423.361896,0.16854
4438.510393,0.16764
4453.763023,0.1666
4469.120824,0.16564
4484.584908,0.16496
4500.15638,0.1642
4515.836365,0.16298
4531.626,0.16145
4547.52644,0.15973
4563.538854,0.15796
4579.664452,0.15642
4595.904394,0.1547
4612.259923,0.15235
4628.732277,0.14976
4645.322713,0.14694
4662.032504,0.14408
4678.862943,0.14136
4695.815342,0.13861
4712.891054,0.1357
4730.091384,0.13266
4747.417723,0.12939
4764.871462,0.12639
4782.45401,0.12376
4800.1668,0.12113
4818.011283,0.11838
4835.988934,0.11575
4854.101273,0.1132
4872.349771,0.1105
4890.735994,0.10772
4909.261506,0.10524
4927.927896,0.10296
4946.736778,0.10064
4965.68979,0.09832
4984.788594,0.09618
5004.034903,0.0941
5023.430384,0.09184
5042.976803,0.08963
5062.675928,0.08783
5082.529556,0.08629
5102.539511,0.08493
5122.707649,0.08373
5143.03585,0.08214
5163.526056,0.08022
5184.180157,0.07869
5205.000154,0.07745
5225.988055,0.07631
5247.145898,0.07558
5268.475756,0.07504
5289.979735,0.07455
5311.659976,0.07459
5333.518684,0.07534
5355.558014,0.07624
5377.780242,0.07648
5400.187657,0.07655
5422.78258,0.07719
5445.567377,0.07807
5468.544451,0.079
5491.716246,0.07968
5515.085278,0.07975
5538.654014,0.07927
5562.425058,0.07818
5586.401024,0.07643
5610.584574,0.07482
5634.978416,0.07353
5659.585305,0.07256
5684.408043,0.07198
5709.449517,0.07127
5734.712564,0.06999
5760.200171,0.06854
5785.915346,0.06726
5811.861151,0.06592
5838.040701,0.06419
5864.457171,0.06209
5891.11379,0.05934
5918.013883,0.05675
5945.160732,0.0543
5972.557781,0.0521
6000.208507,0.05074
6028.116449,0.04993
6056.285213,0.04886
6084.718472,0.04776
6113.41997,0.04684
6142.393557,0.04579
6171.643046,0.04511
6201.172433,0.04483
6230.985758,0.04459
6261.087133,0.04442
6291.480755,0.04436
6322.1709,0.0445
6353.161929,0.04509
6384.458328,0.04596
6416.064553,0.04633
6447.985267,0.04599
6480.225188,0.04546
6512.789128,0.04483
6545.681997,0.04455
6578.908804,0.04447
6612.47466,0.04451
6646.384825,0.04452
6680.644535,0.04451
6715.259268,0.04443
6750.234571,0.04407
6785.576107,0.04343
6821.28966,0.04278
6857.381134,0.04222
6893.856559,0.04158
6930.722144,0.04096
6967.984085,0.04035
7005.648858,0.03971
7043.72303,0.03891
7082.213314,0.03812
7121.126567,0.03748
7160.469802,0.0367
7200.250183,0.03589
7240.47509,0.03504
7281.15191,0.03399
7322.288355,0.03278
7363.892259,0.03164
7405.971636,0.03095
7448.534685,0.03045
7491.589791,0.02953
7535.145539,0.02858
7579.210768,0.02768
7623.794353,0.02651
7668.905555,0.02548
7714.553795,0.02494
7760.74872,0.02453
7807.500211,0.02393
7854.818386,0.02325
7902.713612,0.02248
7951.196573,0.02161
8000.278026,0.02081
8049.969186,0.02022
8100.281485,0.02005
8151.226643,0.02012
8202.816677,0.02013
8255.063908,0.02059
8307.980976,0.0218
8361.580914,0.02312
8415.876885,0.02456
8470.882607,0.02636
8526.612089,0.02817
8583.07971,0.02979
8640.300232,0.03149
8698.288814,0.03363
8757.061026,0.03672
8816.632938,0.04179
8877.020825,0.04951
8938.241648,0.05958
9000.312761,0.07026
9063.252001,0.0782
9127.077709,0.08121
9191.808745,0.08001
9257.464511,0.07699
9324.065051,0.07405
9391.630729,0.07172
9460.182767,0.07063
9529.742923,0.0709
9600.3336,0.07177
9671.977869,0.07208
9744.699495,0.07048
9818.522964,0.06761
9893.473606,0.06561
9969.577237,0.06499
10046.86077,0.06504
10125.35186,0.06511
10205.07902,0.06555
10286.0717,0.06777
10368.36026,0.07168
10451.97605,0.07457
10536.95157,0.07524
10623.32001,0.07549
10711.11603,0.07533
10800.37531,0.07284
10891.13475,0.06894
10983.43249,0.06757
11077.30797,0.07072
11172.80199,0.07536
11269.9569,0.07707
11368.81615,0.0747
11469.42513,0.06949
11571.83069,0.06336
11676.0814,0.05782
11782.22758,0.05336
11890.32139,0.04976
12000.41694,0.04704
12112.5705,0.04516
12226.84001,0.04325
12343.28609,0.0411
12461.97152,0.03869
12582.96151,0.03595
12706.32386,0.0338
12832.12902,0.03242
12960.45029,0.03151
13091.36408,0.03082
13224.94941,0.02989
13361.28907,0.02883
13500.46914,0.02806
13642.57932,0.0278
13787.71312,0.0281
13935.96807,0.02851
14087.44596,0.02777
14242.25324,0.02537
14400.50047,0.02335
14562.30382,0.02282
14727.78452,0.02262
14897.06937,0.02253
15070.29108,0.0231
15247.58859,0.02448
15429.10747,0.02774
15615.00054,0.03221
15805.42735,0.03516
16000.55605,0.03521
16200.56297,0.03477
16405.63335,0.03705
16615.96195,0.04092
16831.75363,0.04643
17053.22403,0.05323
17280.60061,0.05831
17514.12221,0.06258
17754.04165,0.06739
18000.62552,0.07277
18254.15542,0.0777
18514.92902,0.08031
18783.26128,0.08288
19059.48566,0.08858
19343.95592,0.09595
19637.04612,0.09921
19939.15447,0.09704
20250.70371,0.09276
20572.1434,0.08745
20903.95211,0.08096
21246.63979,0.07308
21600.75039,0.06608
21966.86522,0.0625
22345.60422,0.06255
22737.6323,0.06361
23143.66139,0.06001
23564.45516,0.05126
24000.83388,0.0511
24453.67973,0.06603
24923.94272,0.07577
25412.64804,0.07017
