Database of Origin,University of Winnipeg Spectrophotometer Facility
Sample Description,16.7. Meteorites - Ordinary chondrites 16.7.4. NASA samples D&P 102F FTIR spectra - LAP04840 ordinary chondrite
Other Information,LAP 04 840 <250um 50W QTH 8mm spot
Date Added,2018-07-23 23:46:34.923342

Data ID,FTIR_MET_44_2       
Sample ID,LAP04840
Mineral Name,Ordinary Chondrite
Grain Size,<250 um
Viewing Geometry,30/0
Resolution,6 cm-1
Composition,Amphibole bearing

Wavelength
2000.56,0.18178548
2001.142,0.18164862
2001.725,0.18147035
2002.307,0.18129935
2002.891,0.18113808
2003.474,0.18098238
2004.058,0.18086619
2004.643,0.18084132
2005.227,0.18091085
2005.812,0.18099896
2006.397,0.18100845
2006.983,0.18090861
2007.569,0.18075323
2008.155,0.18061233
2008.742,0.18050748
2009.329,0.18042243
2009.916,0.18036149
2010.504,0.180357
2011.092,0.18040844
2011.68,0.18044741
2012.269,0.18039626
2012.858,0.18025614
2013.447,0.1801074
2014.037,0.1800212
2014.627,0.17999209
2015.217,0.17996736
2015.808,0.1799299
2016.399,0.17992787
2016.99,0.18001283
2017.582,0.18016267
2018.174,0.18028456
2018.766,0.18029575
2019.359,0.18019295
2019.952,0.18004125
2020.546,0.17990284
2021.139,0.17979161
2021.733,0.17969504
2022.328,0.17961738
2022.923,0.17957736
2023.518,0.17956737
2024.113,0.1795387
2024.709,0.1794467
2025.305,0.17930219
2025.902,0.17916224
2026.499,0.17906956
2027.096,0.17901957
2027.693,0.17898906
2028.291,0.17897847
2028.89,0.17900957
2029.488,0.17908872
2030.087,0.17918795
2030.686,0.17926701
2031.286,0.17931088
2031.886,0.17933536
2032.486,0.17935701
2033.087,0.17936886
2033.688,0.17935295
2034.289,0.17930732
2034.891,0.17925726
2035.493,0.1792421
2036.096,0.17929386
2036.698,0.17941909
2037.302,0.17959521
2037.905,0.17977113
2038.509,0.17987894
2039.113,0.17986303
2039.718,0.17971768
2040.322,0.17949585
2040.928,0.17927932
2041.533,0.17913423
2042.139,0.17908873
2042.746,0.17913881
2043.352,0.17925753
2043.959,0.17939426
2044.567,0.17948791
2045.174,0.17950068
2045.782,0.17944265
2046.391,0.17936058
2047.0,0.17929824
2047.609,0.17927113
2048.218,0.17927212
2048.828,0.1792836
2049.438,0.17927881
2050.049,0.17922693
2050.66,0.17911534
2051.271,0.17897053
2051.883,0.17884662
2052.495,0.17878481
2053.107,0.17878511
2053.72,0.17881834
2054.333,0.17885928
2054.947,0.17890233
2055.56,0.17894963
2056.175,0.17899767
2056.789,0.17903579
2057.404,0.17905078
2058.019,0.17903197
2058.635,0.17897676
2059.251,0.17890023
2059.867,0.17883378
2060.484,0.17880606
2061.101,0.178818
2061.718,0.17884228
2062.336,0.17884908
2062.954,0.17883663
2063.573,0.17883147
2064.192,0.17886146
2064.811,0.17892987
2065.431,0.17900926
2066.051,0.17905838
2066.671,0.17905305
2067.292,0.17900578
2067.913,0.17895305
2068.534,0.17891863
2069.156,0.17888947
2069.778,0.17883314
2070.401,0.17873686
2071.024,0.17863075
2071.647,0.17856951
2072.271,0.17859359
2072.895,0.17870114
2073.519,0.17884971
2074.144,0.17897648
2074.769,0.17903252
2075.395,0.17901268
2076.02,0.17895911
2076.647,0.1789259
2077.273,0.17893522
2077.9,0.17896979
2078.528,0.17900762
2079.155,0.17904979
2079.784,0.17910737
2080.412,0.17917338
2081.041,0.17922288
2081.67,0.17924076
2082.3,0.17923515
2082.93,0.17922083
2083.56,0.1792008
2084.191,0.17917176
2084.822,0.17913843
2085.454,0.1791134
2086.085,0.17910781
2086.718,0.17912616
2087.35,0.17916801
2087.983,0.17922431
2088.617,0.17927213
2089.251,0.17928724
2089.885,0.17926586
2090.519,0.17922725
2091.154,0.17918847
2091.789,0.17914495
2092.425,0.17908332
2093.061,0.17901135
2093.697,0.1789655
2094.334,0.17898431
2094.971,0.17907834
2095.609,0.17922204
2096.247,0.17936417
2096.885,0.17944841
2097.524,0.17944107
2098.163,0.17935628
2098.803,0.17924819
2099.443,0.17917236
2100.083,0.17915052
2100.723,0.17916881
2101.364,0.17920512
2102.006,0.17924851
2102.648,0.17929166
2103.29,0.17931415
2103.932,0.17928708
2104.575,0.17920144
2105.219,0.17908823
2105.862,0.1790036
2106.506,0.17898852
2107.151,0.17904139
2107.796,0.17911424
2108.441,0.17913665
2109.087,0.17905781
2109.733,0.1788857
2110.379,0.17869321
2111.026,0.17857592
2111.673,0.17858175
2112.321,0.17867572
2112.969,0.17877811
2113.617,0.17883575
2114.266,0.17885395
2114.915,0.17886472
2115.565,0.17887452
2116.215,0.17885217
2116.865,0.17876788
2117.516,0.17863468
2118.167,0.1785077
2118.819,0.17844882
2119.471,0.17848665
2120.123,0.17859528
2120.776,0.17870736
2121.429,0.17876222
2122.082,0.17875922
2122.736,0.1787648
2123.391,0.17885631
2124.045,0.17905022
2124.7,0.17928701
2125.356,0.17948687
2126.012,0.17961434
2126.668,0.1796785
2127.325,0.17968484
2127.982,0.17961409
2128.64,0.17945512
2129.297,0.1792495
2129.956,0.17908262
2130.614,0.17902098
2131.274,0.17905488
2131.933,0.17910979
2132.593,0.17911286
2133.253,0.17904749
2133.914,0.17894973
2134.575,0.17886712
2135.237,0.17882505
2135.899,0.17882314
2136.561,0.17884965
2137.224,0.17889017
2137.887,0.17893353
2138.55,0.17897336
2139.214,0.17900753
2139.879,0.17903749
2140.544,0.17906654
2141.209,0.17909452
2141.874,0.17911417
2142.54,0.17911849
2143.207,0.17911149
2143.873,0.17911175
2144.541,0.17913855
2145.208,0.17918992
2145.876,0.17923968
2146.545,0.17926577
2147.214,0.1792779
2147.883,0.17930897
2148.553,0.17937212
2149.223,0.17943813
2149.893,0.17946273
2150.564,0.17943201
2151.235,0.17937163
2151.907,0.17930977
2152.579,0.17925121
2153.252,0.17919087
2153.925,0.17914469
2154.598,0.17914528
2155.272,0.17920193
2155.946,0.17928252
2156.621,0.17934122
2157.296,0.17936445
2157.972,0.17938196
2158.647,0.17943164
2159.324,0.17952748
2160.001,0.1796615
2160.678,0.17982445
2161.355,0.18000139
2162.033,0.18015155
2162.712,0.18021365
2163.39,0.18015637
2164.07,0.18002058
2164.749,0.17989762
2165.429,0.17985391
2166.11,0.179879
2166.791,0.1799107
2167.472,0.17990612
2168.154,0.17987664
2168.836,0.17986023
2169.519,0.17987474
2170.202,0.17990591
2170.885,0.1799311
2171.569,0.17993553
2172.254,0.17990982
2172.938,0.17984992
2173.624,0.17976852
2174.309,0.17969631
2174.995,0.17966055
2175.682,0.17966567
2176.368,0.17969669
2177.056,0.179742
2177.743,0.17980584
2178.432,0.17989747
2179.12,0.18001607
2179.809,0.18014905
2180.499,0.1802752
2181.189,0.18036657
2181.879,0.18040033
2182.57,0.18037815
2183.261,0.18033135
2183.952,0.18029528
2184.644,0.18027577
2185.337,0.18025077
2186.03,0.18020747
2186.723,0.18016805
2187.417,0.18017088
2188.111,0.18023068
2188.806,0.18032509
2189.501,0.18042065
2190.196,0.18050047
2190.892,0.18056551
2191.589,0.18061431
2192.285,0.18063386
2192.983,0.1806111
2193.68,0.18055262
2194.379,0.18049588
2195.077,0.1804934
2195.776,0.18057505
2196.476,0.18071778
2197.175,0.18085654
2197.876,0.18093944
2198.577,0.18097183
2199.278,0.18100372
2199.979,0.18107456
2200.682,0.1811787
2201.384,0.18128195
2202.087,0.1813602
2202.79,0.18141158
2203.494,0.18143887
2204.199,0.18143997
2204.903,0.18142044
2205.609,0.18140281
2206.314,0.18140557
2207.02,0.18141674
2207.727,0.18140449
2208.434,0.1813578
2209.141,0.1813069
2209.849,0.18129774
2210.557,0.18134371
2211.266,0.18140981
2211.975,0.18144577
2212.685,0.18142821
2213.395,0.18136929
2214.106,0.1812946
2214.817,0.18122543
2215.528,0.18118048
2216.24,0.18117947
2216.952,0.18123055
2217.665,0.18131585
2218.379,0.18139566
2219.092,0.18143761
2219.806,0.18144241
2220.521,0.1814345
2221.236,0.18143028
2221.952,0.18141951
2222.668,0.18137909
2223.384,0.18130262
2224.101,0.18121173
2224.818,0.18113644
2225.536,0.18108886
2226.254,0.18106165
2226.973,0.18104686
2227.692,0.1810451
2228.412,0.18105326
2229.132,0.18104797
2229.853,0.18099371
2230.574,0.18087784
2231.295,0.18073594
2232.017,0.1806314
2232.74,0.18060285
2233.462,0.18063217
2234.186,0.18066444
2234.91,0.18065672
2235.634,0.18060486
2236.359,0.18052641
2237.084,0.18043036
2237.809,0.18031368
2238.536,0.18018638
2239.262,0.18008763
2239.989,0.18006718
2240.717,0.18014562
2241.445,0.18029125
2242.173,0.18043693
2242.902,0.18052274
2243.631,0.18052668
2244.361,0.18046547
2245.092,0.18037543
2245.822,0.18028876
2246.554,0.18022201
2247.285,0.18017808
2248.017,0.18015844
2248.75,0.18017217
2249.483,0.180229
2250.217,0.18031601
2250.951,0.18038778
2251.686,0.18039393
2252.421,0.18032451
2253.156,0.18022746
2253.892,0.18016877
2254.628,0.18017321
2255.365,0.18021151
2256.103,0.18024141
2256.841,0.18025294
2257.579,0.18026862
2258.318,0.18030885
2259.057,0.18036695
2259.797,0.18041658
2260.537,0.1804328
2261.278,0.1804039
2262.019,0.18033073
2262.761,0.18022589
2263.503,0.18011327
2264.246,0.18002012
2264.989,0.17996026
2265.732,0.17992286
2266.477,0.17988647
2267.221,0.17984951
2267.966,0.17984059
2268.712,0.17989006
2269.458,0.17998577
2270.204,0.1800657
2270.951,0.18006469
2271.699,0.17997378
2272.447,0.17985224
2273.195,0.17977756
2273.944,0.17978062
2274.694,0.17982709
2275.444,0.17985559
2276.194,0.17982913
2276.945,0.17975313
2277.696,0.17965751
2278.448,0.17957223
2279.201,0.17951539
2279.954,0.17949137
2280.707,0.17948876
2281.461,0.17948059
2282.215,0.17943669
2282.97,0.17934862
2283.725,0.17924257
2284.481,0.17915834
2285.237,0.17911089
2285.994,0.1790793
2286.752,0.17903752
2287.509,0.17899077
2288.268,0.17896936
2289.026,0.17898817
2289.786,0.17902249
2290.545,0.17903061
2291.306,0.178992
2292.067,0.17891731
2292.828,0.17882753
2293.59,0.17873653
2294.352,0.17865382
2295.115,0.17858482
2295.878,0.17852184
2296.642,0.1784459
2297.406,0.1783483
2298.171,0.17824872
2298.936,0.17817979
2299.702,0.17815112
2300.468,0.17813965
2301.235,0.17812143
2302.002,0.17810245
2302.77,0.17810767
2303.539,0.17814041
2304.307,0.17816608
2305.077,0.17814055
2305.847,0.17805774
2306.617,0.17796253
2307.388,0.17791668
2308.159,0.17794558
2308.931,0.17801435
2309.703,0.17805257
2310.476,0.17801017
2311.25,0.17789651
2312.024,0.1777719
2312.798,0.17770332
2313.573,0.17772087
2314.348,0.17780468
2315.124,0.1779004
2315.901,0.17794866
2316.678,0.17791708
2317.455,0.1778244
2318.234,0.17773185
2319.012,0.17769698
2319.791,0.17772842
2320.571,0.17778446
2321.351,0.17781651
2322.131,0.17780984
2322.913,0.17779001
2323.694,0.17780124
2324.476,0.17788594
2325.259,0.17806579
2326.042,0.17831987
2326.826,0.17857381
2327.61,0.17873365
2328.395,0.17874996
2329.18,0.17865776
2329.966,0.17854719
2330.753,0.17849468
2331.54,0.17851549
2332.327,0.17857563
2333.115,0.17863326
2333.903,0.17867145
2334.692,0.17870114
2335.482,0.17874302
2336.272,0.17880524
2337.062,0.17887222
2337.854,0.17891252
2338.645,0.17890174
2339.437,0.17884544
2340.23,0.1787803
2341.023,0.17874694
2341.817,0.17875818
2342.611,0.1787919
2343.406,0.17881624
2344.201,0.17882021
2344.997,0.17881931
2345.794,0.17883591
2346.591,0.17887412
2347.388,0.17891544
2348.186,0.17893625
2348.985,0.17892885
2349.784,0.1789064
2350.583,0.1788921
2351.384,0.17890304
2352.184,0.17894313
2352.986,0.17900527
2353.787,0.17908002
2354.59,0.17915821
2355.393,0.17922705
2356.196,0.1792663
2357.0,0.1792593
2357.804,0.17921237
2358.609,0.17915843
2359.415,0.17913178
2360.221,0.17913548
2361.028,0.17913972
2361.835,0.17911414
2362.643,0.17905557
2363.451,0.17898498
2364.26,0.17892385
2365.069,0.17887928
2365.879,0.17884804
2366.69,0.17882252
2367.501,0.17878856
2368.312,0.17872702
2369.125,0.17862832
2369.937,0.1785101
2370.751,0.17841504
2371.564,0.17838464
2372.379,0.17843099
2373.194,0.17852711
2374.009,0.17862478
2374.825,0.17868296
2375.642,0.17868416
2376.459,0.17863079
2377.276,0.17853565
2378.095,0.1784191
2378.913,0.17830687
2379.733,0.1782189
2380.553,0.17815449
2381.373,0.17809528
2382.194,0.17803421
2383.016,0.17799712
2383.838,0.17802489
2384.661,0.17812679
2385.484,0.17825885
2386.308,0.17835813
2387.132,0.1783967
2387.957,0.17839793
2388.783,0.1784032
2389.609,0.17842813
2390.435,0.17845673
2391.263,0.17847083
2392.09,0.17847215
2392.919,0.17847114
2393.748,0.17846721
2394.577,0.17845019
2395.407,0.17842299
2396.238,0.17840751
2397.069,0.1784209
2397.901,0.1784496
2398.733,0.17846461
2399.566,0.17846443
2400.399,0.17848904
2401.233,0.17858015
2402.068,0.17872596
2402.903,0.17885726
2403.739,0.17890598
2404.575,0.17886944
2405.412,0.17881106
2406.25,0.17879796
2407.088,0.17884221
2407.926,0.17890091
2408.766,0.17892899
2409.606,0.17892871
2410.446,0.17894399
2411.287,0.17901148
2412.128,0.17911831
2412.971,0.17921091
2413.813,0.1792433
2414.657,0.17921571
2415.5,0.17916626
2416.345,0.17912796
2417.19,0.17910118
2418.036,0.1790659
2418.882,0.17902186
2419.729,0.17901001
2420.576,0.17908221
2421.424,0.1792416
2422.272,0.17941609
2423.122,0.1795106
2423.971,0.17949047
2424.822,0.17940948
2425.673,0.17934573
2426.524,0.179324
2427.376,0.17931396
2428.229,0.17929261
2429.082,0.17928449
2429.936,0.17932723
2430.791,0.17941973
2431.646,0.17952339
2432.501,0.17960842
2433.358,0.17967485
2434.214,0.17972813
2435.072,0.17975333
2435.93,0.17973023
2436.789,0.17966251
2437.648,0.17958104
2438.508,0.17951849
2439.368,0.1794905
2440.229,0.17949774
2441.091,0.1795346
2441.953,0.17959328
2442.816,0.17966639
2443.679,0.17974803
2444.543,0.17982826
2445.408,0.17988761
2446.273,0.17990498
2447.139,0.17987858
2448.006,0.17983334
2448.873,0.17980308
2449.74,0.17980528
2450.609,0.17983528
2451.478,0.17987713
2452.347,0.17991596
2453.217,0.17994455
2454.088,0.17996754
2454.959,0.18000229
2455.831,0.18006522
2456.704,0.18015052
2457.577,0.18022856
2458.451,0.18026946
2459.325,0.18026965
2460.2,0.18024759
2461.076,0.1802192
2461.952,0.18018771
2462.829,0.18015885
2463.707,0.18015074
2464.585,0.1801756
2465.464,0.18021761
2466.343,0.18024211
2467.223,0.18023589
2468.104,0.18023023
2468.985,0.18027072
2469.867,0.18036325
2470.749,0.18045971
2471.632,0.18050323
2472.516,0.18048094
2473.4,0.18042473
2474.285,0.18037004
2475.171,0.18033302
2476.057,0.1803263
2476.944,0.18037318
2477.832,0.18048346
2478.72,0.18061907
2479.608,0.18070908
2480.498,0.18071368
2481.388,0.18066318
2482.278,0.18062776
2483.17,0.18065414
2484.062,0.18073747
2484.954,0.18084691
2485.847,0.1809596
2486.741,0.18106312
2487.636,0.18114068
2488.531,0.18117282
2489.427,0.18115912
2490.323,0.18112745
2491.22,0.18111528
2492.118,0.18113991
2493.016,0.18118699
2493.915,0.1812271
2494.814,0.18124141
2495.715,0.181232
2496.615,0.18121562
2497.517,0.18121148
2498.419,0.18123509
2499.322,0.1812946
2500.225,0.18138924
2501.129,0.18150826
2502.034,0.18163556
2502.939,0.18175565
2503.845,0.18185301
2504.752,0.18191079
2505.659,0.18192064
2506.567,0.18189689
2507.476,0.18187523
2508.385,0.1818864
2509.295,0.18193399
2510.206,0.18200658
2511.117,0.18210989
2512.029,0.18227079
2512.942,0.18249325
2513.855,0.18272122
2514.769,0.18286677
2515.683,0.182884
2516.598,0.18280281
2517.514,0.182692
2518.431,0.1826131
2519.348,0.18261004
2520.266,0.18270994
2521.184,0.18289814
2522.103,0.1831023
2523.023,0.18323533
2523.944,0.18326508
2524.865,0.18322898
2525.787,0.18318677
2526.709,0.18319912
2527.632,0.18335544
2528.556,0.18375428
2529.48,0.18439447
2530.406,0.1850981
2531.331,0.18561604
2532.258,0.18585948
2533.185,0.1859638
2534.113,0.18606642
2535.041,0.18607598
2535.971,0.18575266
2536.9,0.18504701
2537.831,0.18429963
2538.762,0.18403257
2539.694,0.18455729
2540.627,0.1857203
2541.56,0.18692026
2542.494,0.18748451
2543.428,0.18725403
2544.364,0.18670648
2545.3,0.18640279
2546.236,0.1864773
2547.174,0.18669912
2548.112,0.18691625
2549.05,0.18728918
2549.99,0.18797595
2550.93,0.18869742
2551.87,0.18881168
2552.812,0.1879485
2553.754,0.18643694
2554.697,0.18496483
2555.64,0.18407995
2556.585,0.18411587
2557.529,0.18532039
2558.475,0.18783816
2559.421,0.19150665
2560.368,0.19560773
2561.316,0.19882323
2562.264,0.19973573
2563.213,0.19787689
2564.163,0.19434174
2565.113,0.1910103
2566.065,0.18923174
2567.016,0.18925251
2567.969,0.19035278
2568.922,0.19143028
2569.876,0.19194161
2570.831,0.19227355
2571.786,0.19298957
2572.742,0.19405271
2573.699,0.19489727
2574.656,0.19502277
2575.615,0.19433676
2576.573,0.19303363
2577.533,0.1915288
2578.493,0.19053297
2579.454,0.19082905
2580.416,0.19276788
2581.378,0.19583443
2582.342,0.19861861
2583.305,0.19971048
2584.27,0.19906924
2585.235,0.19791171
2586.201,0.19717167
2587.168,0.19661065
2588.135,0.19534722
2589.103,0.19328841
2590.072,0.19184685
2591.042,0.19304871
2592.012,0.19844593
2592.983,0.2080449
2593.955,0.21753796
2594.927,0.21826363
2595.9,0.20915349
2596.874,0.19874453
2597.849,0.19226276
2598.824,0.18999714
2599.8,0.19070883
2600.777,0.19312947
2601.755,0.19644146
2602.733,0.20022859
2603.712,0.20383848
2604.692,0.20594342
2605.672,0.20540202
2606.653,0.20263942
2607.635,0.199264
2608.618,0.19648001
2609.601,0.194489
2610.585,0.19300584
2611.57,0.19201459
2612.556,0.19204034
2613.542,0.19370763
2614.529,0.19704244
2615.517,0.20103434
2616.505,0.20400652
2617.495,0.20498628
2618.485,0.20429637
2619.475,0.20235431
2620.467,0.19911538
2621.459,0.19515062
2622.452,0.19201174
2623.446,0.19102393
2624.44,0.19236958
2625.435,0.19509848
2626.431,0.19783739
2627.428,0.19997705
2628.426,0.20185571
2629.424,0.20348775
2630.423,0.2039011
2631.423,0.20231628
2632.423,0.19939146
2633.424,0.19642533
2634.426,0.19404462
2635.429,0.19219621
2636.432,0.19080498
2637.437,0.19004497
2638.442,0.19005087
2639.447,0.19061845
2640.454,0.1913132
2641.461,0.19189427
2642.469,0.19253512
2643.478,0.19348612
2644.488,0.19454484
2645.498,0.19499687
2646.509,0.19432072
2647.521,0.1929546
2648.534,0.19201602
2649.547,0.19236577
2650.561,0.19406215
2651.576,0.1963429
2652.592,0.19803631
2653.609,0.19836061
2654.626,0.1974828
2655.644,0.19629418
2656.663,0.19577375
2657.682,0.19642141
2658.703,0.19790257
2659.724,0.19922821
2660.746,0.19987921
2661.768,0.20085436
2662.792,0.20395784
2663.816,0.21003717
2664.841,0.21745315
2665.867,0.22236438
2666.894,0.22314581
2667.921,0.2225987
2668.949,0.22302454
2669.978,0.22272716
2671.008,0.21862665
2672.038,0.21183944
2673.07,0.20682122
2674.102,0.20640529
2675.135,0.21064007
2676.168,0.21685395
2677.203,0.21994449
2678.238,0.21669102
2679.274,0.20970487
2680.311,0.20344318
2681.349,0.20001616
2682.387,0.19934757
2683.426,0.20029534
2684.467,0.20139903
2685.507,0.20157774
2686.549,0.20058034
2687.591,0.19884199
2688.635,0.19716366
2689.679,0.19658252
2690.724,0.19818652
2691.769,0.20265213
2692.816,0.20940184
2693.863,0.21561734
2694.911,0.21737184
2695.96,0.21408406
2697.01,0.20942765
2698.06,0.20689855
2699.112,0.20752123
2700.164,0.21030517
2701.217,0.21316661
2702.27,0.21440444
2703.325,0.21413001
2704.38,0.21393621
2705.437,0.21560444
2706.494,0.22061887
2707.552,0.23016708
2708.61,0.2442757
2709.67,0.25928568
2710.73,0.26695155
2711.791,0.26248498
2712.853,0.25143972
2713.916,0.24170054
2714.98,0.23700634
2716.044,0.23856882
2717.109,0.24726163
2718.175,0.26331629
2719.242,0.28346022
2720.31,0.29862902
2721.379,0.30092646
2722.448,0.29343755
2723.518,0.28313403
2724.589,0.27110615
2725.661,0.25560047
2726.734,0.23854996
2727.808,0.2242687
2728.882,0.21480632
2729.958,0.20962668
2731.034,0.20747713
2732.111,0.20737044
2733.188,0.20825884
2734.267,0.20866492
2735.347,0.20788234
2736.427,0.2075441
2737.508,0.21055414
2738.59,0.21804909
2739.673,0.22586121
2740.757,0.22461353
2741.841,0.21193892
2742.927,0.19671564
2744.013,0.185503
2745.1,0.17894255
2746.188,0.17554087
2747.277,0.17378307
2748.367,0.17269421
2749.457,0.17190142
2750.549,0.17163132
2751.641,0.17265309
2752.734,0.17585697
2753.828,0.18121991
2754.923,0.18615226
2756.019,0.1858177
2757.115,0.17927124
2758.213,0.17156077
2759.311,0.16688482
2760.41,0.16606393
2761.51,0.16795925
2762.611,0.17030915
2763.713,0.17093534
2764.816,0.16959092
2765.919,0.16769612
2767.024,0.16648272
2768.129,0.16621909
2769.235,0.16638602
2770.342,0.16604562
2771.45,0.1644779
2772.559,0.16187764
2773.669,0.15921578
2774.779,0.15733726
2775.891,0.1564152
2777.003,0.15610983
2778.116,0.15603276
2779.23,0.15601599
2780.345,0.15595543
2781.461,0.15564206
2782.578,0.15506021
2783.696,0.15471755
2784.814,0.15527946
2785.934,0.15673838
2787.054,0.15789605
2788.175,0.15710357
2789.297,0.15420014
2790.42,0.15073743
2791.544,0.14808421
2792.669,0.14653557
2793.795,0.14572741
2794.922,0.14518117
2796.049,0.14457907
2797.178,0.14385403
2798.307,0.14324897
2799.437,0.14327377
2800.568,0.14439293
2801.7,0.14650553
2802.833,0.14850597
2803.967,0.14874329
2805.102,0.14677118
2806.238,0.14390063
2807.374,0.14149251
2808.512,0.13990669
2809.65,0.1388712
2810.789,0.13811129
2811.93,0.13759263
2813.071,0.13733819
2814.213,0.13722093
2815.356,0.1370561
2816.5,0.13684832
2817.645,0.13678049
2818.791,0.13689418
2819.937,0.1368739
2821.085,0.13627822
2822.233,0.13505909
2823.383,0.13368738
2824.533,0.13268572
2825.685,0.1321945
2826.837,0.13195382
2827.99,0.13160177
2829.144,0.13102716
2830.299,0.13044219
2831.455,0.1301219
2832.612,0.13013925
2833.77,0.13033567
2834.929,0.13047915
2836.089,0.13041279
2837.25,0.13007323
2838.411,0.12944814
2839.574,0.12859088
2840.737,0.12764495
2841.902,0.12678305
2843.067,0.12610341
2844.234,0.12560759
2845.401,0.12526525
2846.569,0.12505641
2847.739,0.12493636
2848.909,0.12480933
2850.08,0.12459889
2851.252,0.12433427
2852.425,0.12410215
2853.599,0.12389754
2854.774,0.12357552
2855.95,0.12300733
2857.127,0.12226629
2858.305,0.12157958
2859.484,0.12110092
2860.664,0.12079546
2861.844,0.1205351
2863.026,0.12024879
2864.209,0.11995072
2865.392,0.11965738
2866.577,0.11934781
2867.763,0.11902611
2868.949,0.11876951
2870.137,0.11866176
2871.325,0.11867569
2872.515,0.11865381
2873.705,0.11843213
2874.897,0.11799037
2876.089,0.11746311
2877.283,0.11701974
2878.477,0.11674295
2879.673,0.11659511
2880.869,0.11646526
2882.066,0.11624983
2883.265,0.11592367
2884.464,0.11557245
2885.664,0.115354
2886.866,0.11538791
2888.068,0.11563852
2889.271,0.11589565
2890.476,0.11589792
2891.681,0.11551997
2892.887,0.11486046
2894.095,0.1141555
2895.303,0.11360978
2896.512,0.11329235
2897.723,0.11314828
2898.934,0.11306972
2900.146,0.11295405
2901.36,0.11273783
2902.574,0.11242443
2903.789,0.11208278
2905.006,0.11179446
2906.223,0.11158754
2907.441,0.11141637
2908.661,0.11120047
2909.881,0.11089535
2911.103,0.11054148
2912.325,0.11025354
2913.549,0.11014675
2914.773,0.11023936
2915.999,0.11040658
2917.225,0.11045331
2918.453,0.11026159
2919.681,0.10987662
2920.911,0.10944218
2922.142,0.10905852
2923.373,0.10870989
2924.606,0.10832195
2925.84,0.10786692
2927.075,0.1073952
2928.31,0.10697843
2929.547,0.10664717
2930.785,0.1063864
2932.024,0.10617486
2933.264,0.10601737
2934.505,0.10593624
2935.747,0.10593478
2936.99,0.10596859
2938.234,0.10595642
2939.479,0.10582757
2940.726,0.1055765
2941.973,0.10529379
2943.221,0.10514322
2944.471,0.10526046
2945.721,0.10561094
2946.973,0.10594028
2948.225,0.1059278
2949.479,0.10546615
2950.733,0.10480095
2951.989,0.10434759
2953.246,0.10432309
2954.504,0.10454791
2955.763,0.10461891
2957.023,0.10427934
2958.284,0.10361651
2959.546,0.10292721
2960.809,0.10244484
2962.073,0.10221182
2963.339,0.10215026
2964.605,0.1021774
2965.873,0.1022302
2967.141,0.10224126
2968.411,0.10216465
2969.681,0.10205125
2970.953,0.10206041
2972.226,0.10233763
2973.5,0.1028439
2974.775,0.10332291
2976.051,0.10347083
2977.328,0.10316154
2978.607,0.10252722
2979.886,0.10184506
2981.167,0.10134663
2982.448,0.10109992
2983.731,0.10102253
2985.015,0.10098986
2986.3,0.10094523
2987.586,0.10093179
2988.873,0.10102127
2990.161,0.10120088
2991.45,0.10134361
2992.74,0.10131292
2994.032,0.10109801
2995.324,0.10083245
2996.618,0.10067813
2997.913,0.10070283
2999.209,0.10086251
3000.506,0.10106411
3001.804,0.10121678
3003.103,0.10124741
3004.404,0.10111878
3005.705,0.10086048
3007.008,0.10056765
3008.312,0.10035305
3009.616,0.10029141
3010.922,0.10039387
3012.23,0.10060723
3013.538,0.10082728
3014.847,0.10094473
3016.158,0.10092003
3017.469,0.10081496
3018.782,0.10073019
3020.096,0.10071106
3021.411,0.1007288
3022.727,0.10074228
3024.044,0.10076225
3025.363,0.10085752
3026.683,0.10112286
3028.003,0.10163559
3029.325,0.10238991
3030.648,0.1032205
3031.972,0.10381256
3033.298,0.10387476
3034.624,0.1033696
3035.952,0.10257932
3037.281,0.10191628
3038.611,0.10164308
3039.942,0.10175344
3041.274,0.10207746
3042.607,0.10244454
3043.942,0.10273947
3045.278,0.10287345
3046.615,0.10279338
3047.953,0.1025416
3049.292,0.10225846
3050.632,0.10208089
3051.974,0.10203749
3053.317,0.10205683
3054.661,0.10206948
3056.006,0.10207592
3057.352,0.10212065
3058.7,0.10224133
3060.048,0.10246425
3061.398,0.10280834
3062.749,0.10323958
3064.101,0.1036197
3065.455,0.10375935
3066.809,0.10357411
3068.165,0.10318187
3069.522,0.10281619
3070.88,0.1026333
3072.239,0.10261692
3073.6,0.10266311
3074.962,0.10272338
3076.325,0.10283798
3077.689,0.10304504
3079.054,0.103297
3080.421,0.10348865
3081.788,0.10356089
3083.157,0.10356281
3084.527,0.10360451
3085.899,0.10374628
3087.271,0.1039406
3088.645,0.10408519
3090.02,0.10412121
3091.396,0.10407024
3092.774,0.10399081
3094.153,0.10393536
3095.532,0.10396092
3096.914,0.10413837
3098.296,0.10449166
3099.679,0.10491696
3101.064,0.10521101
3102.45,0.10522522
3103.837,0.1049922
3105.226,0.10468797
3106.616,0.10447676
3108.007,0.10440212
3109.399,0.10441377
3110.792,0.10446252
3112.187,0.10454399
3113.583,0.10466789
3114.98,0.10482365
3116.378,0.10498375
3117.778,0.10512051
3119.179,0.10521565
3120.581,0.10527203
3121.985,0.10532263
3123.389,0.10541176
3124.795,0.10555197
3126.202,0.10570256
3127.611,0.10580519
3129.02,0.10584523
3130.431,0.1058636
3131.844,0.10590843
3133.257,0.10598921
3134.672,0.10608403
3136.088,0.10617865
3137.505,0.10628641
3138.924,0.10643064
3140.344,0.10661833
3141.765,0.10683504
3143.187,0.10705793
3144.611,0.10726678
3146.036,0.10744425
3147.462,0.10757645
3148.89,0.10766328
3150.319,0.10772593
3151.749,0.10779818
3153.18,0.10790818
3154.613,0.10806786
3156.047,0.10827222
3157.482,0.1085021
3158.919,0.10872705
3160.357,0.10891605
3161.796,0.10905876
3163.236,0.10917652
3164.678,0.1093052
3166.121,0.10946328
3167.566,0.10964627
3169.011,0.10984977
3170.458,0.11008107
3171.907,0.11033601
3173.356,0.11059039
3174.807,0.11085069
3176.26,0.1112023
3177.713,0.11174277
3179.168,0.11242528
3180.624,0.1130049
3182.082,0.11320925
3183.541,0.11298563
3185.001,0.11256017
3186.463,0.11225183
3187.926,0.11224718
3189.39,0.11254625
3190.856,0.11304722
3192.323,0.1136127
3193.791,0.11407839
3195.26,0.11429921
3196.731,0.1142576
3198.204,0.11411121
3199.677,0.11408807
3201.152,0.11430442
3202.629,0.11467698
3204.106,0.11501108
3205.585,0.11517918
3207.066,0.11523383
3208.548,0.11537294
3210.031,0.11579969
3211.515,0.11658508
3213.001,0.11761957
3214.488,0.11866028
3215.977,0.11942577
3217.467,0.11970526
3218.958,0.11947081
3220.451,0.11893371
3221.945,0.11844991
3223.441,0.11828481
3224.938,0.11842458
3226.436,0.11862761
3227.936,0.11868209
3229.437,0.11860482
3230.939,0.11858514
3232.443,0.11876003
3233.948,0.11907407
3235.455,0.11935508
3236.963,0.11950114
3238.472,0.11958186
3239.983,0.1197695
3241.495,0.12017703
3243.008,0.12075545
3244.523,0.12133946
3246.04,0.12179181
3247.558,0.12210836
3249.077,0.12239783
3250.598,0.12277646
3252.12,0.12328755
3253.643,0.12389018
3255.168,0.12447521
3256.694,0.12488391
3258.222,0.12496262
3259.751,0.12466541
3261.282,0.12413177
3262.814,0.12364362
3264.347,0.12346849
3265.882,0.12370373
3267.418,0.12423923
3268.956,0.12484367
3270.495,0.12529442
3272.036,0.12548249
3273.578,0.12545615
3275.122,0.12537868
3276.667,0.1254155
3278.213,0.12563159
3279.761,0.12597979
3281.31,0.12637172
3282.861,0.12674565
3284.413,0.12707183
3285.967,0.12732275
3287.522,0.12748157
3289.079,0.12759593
3290.637,0.12779667
3292.196,0.12821727
3293.757,0.12885642
3295.32,0.12952433
3296.884,0.12996031
3298.449,0.13004178
3300.016,0.12989448
3301.585,0.12979056
3303.155,0.12991752
3304.726,0.13023736
3306.299,0.13055999
3307.873,0.13073779
3309.449,0.13078637
3311.026,0.13083582
3312.605,0.1309878
3314.185,0.13122969
3315.767,0.13147776
3317.351,0.13168085
3318.936,0.13187306
3320.522,0.13214375
3322.11,0.13257817
3323.699,0.13321802
3325.29,0.13403266
3326.882,0.13488378
3328.476,0.13553324
3330.072,0.13575182
3331.669,0.13548905
3333.267,0.13494155
3334.867,0.13442556
3336.469,0.13416116
3338.072,0.13416955
3339.676,0.13435224
3341.282,0.13462274
3342.89,0.13495256
3344.499,0.13533591
3346.11,0.13576117
3347.722,0.13621628
3349.336,0.13667508
3350.952,0.13706321
3352.569,0.13727182
3354.187,0.13724584
3355.807,0.13706093
3357.429,0.1369002
3359.052,0.13694366
3360.677,0.13726275
3362.303,0.13779146
3363.931,0.13837346
3365.56,0.13885128
3367.191,0.13915329
3368.824,0.13931897
3370.458,0.13943438
3372.093,0.1395389
3373.731,0.13959813
3375.37,0.13957435
3377.01,0.13950102
3378.652,0.13947245
3380.296,0.13956433
3381.941,0.13977855
3383.588,0.14005707
3385.236,0.14032619
3386.886,0.14053123
3388.538,0.14066337
3390.191,0.14077962
3391.846,0.14098154
3393.502,0.14133258
3395.16,0.14178043
3396.82,0.14218621
3398.481,0.14246128
3400.144,0.14267348
3401.809,0.14298842
3403.475,0.14348388
3405.143,0.14403268
3406.812,0.14439349
3408.483,0.14442894
3410.156,0.1442297
3411.83,0.14402407
3413.506,0.14398205
3415.183,0.14412143
3416.862,0.14438309
3418.543,0.14474342
3420.226,0.14521731
3421.91,0.14576618
3423.596,0.14625339
3425.283,0.14652696
3426.972,0.14655188
3428.663,0.1464485
3430.355,0.14639635
3432.049,0.14650412
3433.745,0.14677909
3435.442,0.14720439
3437.141,0.14780418
3438.842,0.14859369
3440.545,0.14946566
3442.249,0.15016772
3443.954,0.15044629
3445.662,0.15024699
3447.371,0.14978014
3449.082,0.14937465
3450.794,0.14924684
3452.509,0.14938273
3454.224,0.14961488
3455.942,0.14979399
3457.661,0.14990015
3459.382,0.15001878
3461.105,0.1502333
3462.829,0.15053813
3464.556,0.15084333
3466.283,0.15105601
3468.013,0.15116082
3469.744,0.15122349
3471.477,0.15132002
3473.212,0.1514691
3474.948,0.15163784
3476.686,0.15179732
3478.426,0.15194674
3480.168,0.15208664
3481.911,0.15221087
3483.656,0.15236289
3485.403,0.15267153
3487.152,0.1532574
3488.902,0.15406166
3490.654,0.15480574
3492.408,0.15518657
3494.164,0.15513652
3495.921,0.15487657
3497.68,0.15470905
3499.441,0.15477781
3501.204,0.15502877
3502.968,0.15534899
3504.734,0.15568147
3506.502,0.15601077
3508.272,0.15630405
3510.043,0.15651616
3511.817,0.15663713
3513.592,0.15670551
3515.368,0.15677898
3517.147,0.156912
3518.927,0.15714441
3520.71,0.15746805
3522.494,0.15779792
3524.28,0.15802398
3526.067,0.15813795
3527.857,0.15829517
3529.648,0.15869373
3531.441,0.15936077
3533.236,0.16007625
3535.032,0.16053896
3536.831,0.16061396
3538.631,0.16041434
3540.433,0.16016399
3542.237,0.16000793
3544.043,0.1599572
3545.851,0.15997178
3547.66,0.16004306
3549.471,0.16018904
3551.284,0.16040589
3553.099,0.16065744
3554.916,0.16091029
3556.735,0.16115483
3558.555,0.16138968
3560.378,0.16160814
3562.202,0.16181522
3564.028,0.1620478
3565.856,0.16235362
3567.686,0.16273789
3569.518,0.16313396
3571.351,0.16344064
3573.187,0.16359884
3575.024,0.16363913
3576.863,0.16366709
3578.704,0.16380489
3580.547,0.16412428
3582.392,0.16459998
3584.239,0.16510925
3586.088,0.16549674
3587.938,0.1656846
3589.791,0.16574606
3591.645,0.16585619
3593.501,0.16613522
3595.359,0.16652648
3597.22,0.16684192
3599.082,0.1669392
3600.946,0.16684844
3602.811,0.16672461
3604.679,0.16669592
3606.549,0.16678729
3608.421,0.16698044
3610.294,0.16728754
3612.17,0.16772403
3614.047,0.16822379
3615.926,0.16864179
3617.808,0.16886962
3619.691,0.16893274
3621.576,0.16895364
3623.463,0.169029
3625.353,0.16916249
3627.244,0.16930891
3629.137,0.16944817
3631.032,0.1696005
3632.929,0.16978726
3634.828,0.17000302
3636.729,0.17022406
3638.632,0.17043216
3640.537,0.17062823
3642.444,0.17083827
3644.353,0.17110757
3646.263,0.17146981
3648.176,0.17190151
3650.091,0.17230576
3652.008,0.17256521
3653.927,0.17263366
3655.848,0.17258326
3657.771,0.1725562
3659.696,0.17266033
3661.623,0.17290181
3663.552,0.17320495
3665.483,0.17348496
3667.416,0.17370203
3669.351,0.17386605
3671.288,0.17401876
3673.227,0.1742154
3675.168,0.17450333
3677.111,0.1748906
3679.057,0.1753273
3681.004,0.17573051
3682.953,0.17603841
3684.905,0.17624407
3686.858,0.17638291
3688.814,0.17649915
3690.771,0.17662586
3692.731,0.17678552
3694.693,0.17699449
3696.656,0.17726035
3698.622,0.17757522
3700.59,0.17791349
3702.56,0.17823904
3704.532,0.17852414
3706.507,0.17877019
3708.483,0.17901083
3710.461,0.17928751
3712.442,0.17961249
3714.425,0.17995802
3716.409,0.1802805
3718.396,0.18055596
3720.385,0.18079254
3722.376,0.18101964
3724.37,0.18127315
3726.365,0.18158341
3728.362,0.18195825
3730.362,0.18236413
3732.364,0.18273864
3734.368,0.18304322
3736.374,0.18331232
3738.382,0.18363782
3740.392,0.18408494
3742.405,0.18461771
3744.419,0.1851143
3746.436,0.18546729
3748.455,0.18567054
3750.476,0.18581209
3752.499,0.1859876
3754.525,0.18623209
3756.553,0.18652592
3758.582,0.18684343
3760.614,0.18717419
3762.649,0.18750607
3764.685,0.18781469
3766.724,0.18808787
3768.764,0.1883521
3770.807,0.18865667
3772.853,0.18902579
3774.9,0.18943061
3776.95,0.1898122
3779.001,0.19013149
3781.056,0.19039764
3783.112,0.19065344
3785.17,0.19093956
3787.231,0.19126951
3789.294,0.19162945
3791.359,0.19199889
3793.427,0.19236816
3795.496,0.19274514
3797.568,0.19314497
3799.643,0.19357414
3801.719,0.19402168
3803.798,0.19446384
3805.879,0.19487499
3807.962,0.19523524
3810.048,0.19553943
3812.135,0.19580585
3814.225,0.19607617
3816.318,0.19639357
3818.412,0.19677085
3820.509,0.19717642
3822.609,0.19756085
3824.71,0.19789868
3826.814,0.1982039
3828.92,0.19850144
3831.029,0.19879268
3833.139,0.19905376
3835.252,0.19927063
3837.368,0.1994653
3839.486,0.19968367
3841.606,0.19995689
3843.728,0.20027773
3845.853,0.20061151
3847.98,0.20092643
3850.109,0.20121803
3852.241,0.20150862
3854.375,0.20182819
3856.512,0.20218874
3858.65,0.20257388
3860.792,0.20295193
3862.935,0.20330552
3865.081,0.20364799
3867.229,0.20400749
3869.38,0.20439658
3871.533,0.20479792
3873.689,0.20518101
3875.846,0.2055303
3878.007,0.20585295
3880.169,0.20616381
3882.334,0.20647103
3884.502,0.20677814
3886.672,0.20709594
3888.844,0.20744053
3891.019,0.20782006
3893.196,0.20822297
3895.375,0.20862233
3897.557,0.20898963
3899.742,0.2093104
3901.929,0.20959097
3904.118,0.20985648
3906.31,0.21013734
3908.504,0.21045018
3910.7,0.21078846
3912.9,0.21113094
3915.101,0.21146796
3917.305,0.21181782
3919.512,0.21221207
3921.721,0.21265924
3923.932,0.21312278
3926.146,0.21354169
3928.363,0.21388451
3930.581,0.21418537
3932.803,0.21452169
3935.027,0.2149501
3937.253,0.21546056
3939.482,0.21599143
3941.714,0.21648792
3943.948,0.21694641
3946.184,0.21740939
3948.423,0.21792723
3950.665,0.21852099
3952.909,0.21916928
3955.156,0.21982132
3957.405,0.22043008
3959.657,0.22098479
3961.911,0.22152234
3964.168,0.22209617
3966.427,0.22272595
3968.689,0.22337754
3970.954,0.22399466
3973.221,0.22455093
3975.491,0.22506573
3977.763,0.2255697
3980.038,0.2260698
3982.315,0.22655243
3984.595,0.22701107
3986.878,0.22745466
3989.163,0.22788983
3991.451,0.22830978
3993.742,0.22871066
3996.035,0.22910999
3998.33,0.22953831
4000.629,0.23001262
4002.93,0.23052651
4005.233,0.23106209
4007.54,0.23160083
4009.849,0.23212072
4012.16,0.23259929
4014.475,0.23303581
4016.791,0.23346588
4019.111,0.23393951
4021.433,0.23447487
4023.758,0.2350402
4026.086,0.23558694
4028.416,0.23609893
4030.749,0.23660434
4033.085,0.23714212
4035.423,0.23772745
4037.764,0.23835144
4040.108,0.23900521
4042.454,0.23969014
4044.804,0.24040443
4047.155,0.2411324
4049.51,0.24185613
4051.867,0.24258096
4054.228,0.24333436
4056.59,0.24413452
4058.956,0.24496115
4061.324,0.24576885
4063.695,0.246531
4066.069,0.24726344
4068.446,0.24800393
4070.825,0.24877346
4073.207,0.24956647
4075.592,0.25037358
4077.98,0.25120033
4080.371,0.25205948
4082.764,0.25295125
4085.16,0.25385996
4087.559,0.25476923
4089.961,0.25567028
4092.365,0.25655702
4094.773,0.25742144
4097.183,0.25826572
4099.596,0.25911578
4102.012,0.26001196
4104.43,0.26097274
4106.852,0.2619694
4109.276,0.26294364
4111.703,0.26385884
4114.133,0.26473357
4116.566,0.26562743
4119.002,0.26659141
4121.441,0.26763168
4123.882,0.26871111
4126.327,0.26978447
4128.774,0.27083287
4131.224,0.27187242
4133.677,0.27293208
4136.133,0.27402386
4138.592,0.27513571
4141.054,0.27625078
4143.519,0.27736848
4145.987,0.27850207
4148.457,0.27965953
4150.931,0.28083581
4153.407,0.28202414
4155.887,0.28322516
4158.369,0.28444077
4160.854,0.2856703
4163.343,0.28691887
4165.834,0.2881998
4168.328,0.28951483
4170.826,0.29082731
4173.326,0.29207829
4175.829,0.29324459
4178.335,0.29437554
4180.844,0.2955639
4183.356,0.29688072
4185.872,0.29835984
4188.39,0.30005457
4190.911,0.3021044
4193.435,0.30474327
4195.963,0.30824352
4198.493,0.3128467
4201.026,0.3187267
4203.563,0.32598669
4206.102,0.33467471
4208.645,0.3447902
4211.19,0.35626011
4213.739,0.36889865
4216.291,0.38239208
4218.846,0.3963367
4221.404,0.41028214
4223.965,0.42373801
4226.529,0.43620729
4229.096,0.4472969
4231.666,0.45673224
4234.24,0.46411069
4236.816,0.46874289
4239.396,0.46997104
4241.979,0.46745439
4244.565,0.46069881
4247.154,0.44880241
4249.746,0.4320324
4252.341,0.41367292
4254.94,0.39883502
4257.542,0.39150965
4260.146,0.39322078
4262.754,0.4030488
4265.366,0.41761161
4267.98,0.4317699
4270.598,0.44146752
4273.219,0.44629652
4275.843,0.44827492
4278.47,0.4491282
4281.1,0.44959693
4283.734,0.45010556
4286.371,0.45092395
4289.011,0.45176403
4291.655,0.45184679
4294.301,0.45066868
4296.951,0.44856464
4299.604,0.44635438
4302.261,0.44453166
4304.92,0.44287498
4307.583,0.4407365
4310.25,0.43765732
4312.919,0.43377383
4315.592,0.42972399
4318.268,0.42618697
4320.948,0.4234628
4323.631,0.42137348
4326.317,0.41950006
4329.006,0.41754531
4331.699,0.41552674
4334.395,0.41369117
4337.095,0.41228685
4339.797,0.41141338
4342.504,0.41103325
4345.213,0.41105926
4347.926,0.4114119
4350.642,0.41201709
4353.362,0.41279614
4356.085,0.41368454
4358.811,0.41465667
4361.541,0.41571057
4364.275,0.41682937
4367.011,0.41796734
4369.751,0.41908611
4372.495,0.42020406
4375.242,0.42141699
4377.992,0.42285608
4380.746,0.42460946
4383.504,0.42666347
4386.264,0.42890736
4389.029,0.43119883
4391.796,0.43344309
4394.567,0.43562472
4397.342,0.43776834
4400.12,0.43987998
4402.902,0.44194576
4405.687,0.44397983
4408.476,0.44603398
4411.268,0.44813073
4414.064,0.45020848
4416.863,0.45218075
4419.666,0.4540509
4422.472,0.45592445
4425.282,0.45788459
4428.096,0.45987041
4430.913,0.4617215
4433.734,0.46335367
4436.558,0.46485934
4439.386,0.46641274
4442.217,0.46810191
4445.052,0.46986358
4447.891,0.47156247
4450.733,0.47310305
4453.579,0.47447161
4456.428,0.47570728
4459.281,0.47686588
4462.138,0.4779958
4464.998,0.47911597
4467.863,0.48020587
4470.73,0.48123269
4473.602,0.48218916
4476.477,0.48309804
4479.355,0.48398543
4482.238,0.48484657
4485.124,0.48564166
4488.014,0.48633976
4490.908,0.48696564
4493.805,0.48760243
4496.706,0.48832569
4499.611,0.48913827
4502.519,0.48998621
4505.431,0.49084524
4508.347,0.49175372
4511.267,0.49275102
4514.191,0.49379652
4517.118,0.49478211
4520.049,0.49563988
4522.984,0.49641719
4525.923,0.49722383
4528.865,0.49813052
4531.812,0.49914287
4534.762,0.50022126
4537.716,0.5013049
4540.674,0.50236163
4543.635,0.50343032
4546.601,0.50459607
4549.57,0.50591389
4552.543,0.50732233
4555.521,0.50863251
4558.502,0.50967107
4561.487,0.51046393
4564.475,0.5112394
4567.468,0.51221909
4570.465,0.51341177
4573.465,0.51465231
4576.47,0.51580242
4579.478,0.51687051
4582.491,0.51794481
4585.507,0.51906829
4588.527,0.52018961
4591.551,0.52123435
4594.58,0.52219992
4597.612,0.52316235
4600.648,0.52420399
4603.688,0.52536246
4606.732,0.52665462
4609.781,0.52813169
4612.833,0.52984247
4615.889,0.53172393
4618.949,0.53358209
4622.014,0.5351997
4625.082,0.53646225
4628.155,0.53744082
4631.231,0.53835957
4634.312,0.53940786
4637.397,0.54058133
4640.485,0.54173821
4643.578,0.54280663
4646.675,0.54391358
4649.777,0.5452806
4652.882,0.5470017
4655.991,0.54895509
4659.105,0.5509217
4662.223,0.55275749
4665.345,0.5544317
4668.471,0.55595854
4671.601,0.55738543
4674.735,0.55882149
4677.874,0.56037948
4681.017,0.56206938
4684.164,0.56377193
4687.315,0.56533043
4690.471,0.56672008
4693.63,0.56810949
4696.794,0.56967135
4699.962,0.57137065
4703.135,0.57301126
4706.312,0.57447067
4709.493,0.57583465
4712.678,0.57730493
4715.868,0.57901327
4719.062,0.58092246
4722.26,0.58286447
4725.463,0.58465015
4728.669,0.58617039
4731.881,0.58746812
4735.096,0.58873183
4738.316,0.59014929
4741.541,0.59173353
4744.769,0.59333222
4748.002,0.5947982
4751.24,0.59614372
4754.482,0.59750467
4757.728,0.598953
4760.979,0.60037923
4764.234,0.60162402
4767.494,0.60267761
4770.758,0.60372365
4774.026,0.60496037
4777.299,0.60640983
4780.577,0.60793513
4783.859,0.60939788
4787.145,0.61072463
4790.436,0.61188743
4793.732,0.61288282
4797.032,0.61376962
4800.336,0.6146749
4803.645,0.61570968
4806.959,0.61686628
4810.277,0.61803823
4813.6,0.61915209
4816.927,0.62022653
4820.259,0.62128026
4823.596,0.62225711
4826.937,0.62311104
4830.283,0.62392733
4833.633,0.62490139
4836.988,0.62617503
4840.348,0.62767727
4843.712,0.6291226
4847.081,0.63024024
4850.455,0.6310209
4853.833,0.63169073
4857.216,0.63250697
4860.604,0.63357015
4863.996,0.63475107
4867.393,0.63580934
4870.795,0.63659334
4874.202,0.63712415
4877.613,0.6375739
4881.03,0.63819235
4884.451,0.63917975
4887.876,0.64051236
4891.307,0.64186465
4894.742,0.6428402
4898.182,0.64333635
4901.627,0.64365521
4905.077,0.64419838
4908.532,0.64505192
4911.991,0.64598384
4915.456,0.64682124
4918.925,0.6476885
4922.399,0.64884273
4925.878,0.6503344
4929.362,0.65188876
4932.851,0.65312709
4936.345,0.65385758
4939.844,0.65420723
4943.347,0.65457509
4946.856,0.65538467
4950.37,0.65676039
4953.888,0.65835519
4957.412,0.65954205
4960.941,0.65992437
4964.474,0.65969848
4968.013,0.65946255
4971.556,0.65969402
4975.105,0.66042437
4978.659,0.66134811
4982.218,0.66216103
4985.782,0.66279654
4989.351,0.6633957
4992.925,0.66409131
4996.504,0.66485848
5000.088,0.66560086
5003.678,0.66641384
5007.272,0.66768244
5010.872,0.66975691
5014.477,0.67245032
5018.087,0.67492857
5021.703,0.67627138
5025.323,0.6762364
5028.949,0.67541556
5032.58,0.6746647
5036.216,0.67447004
5039.857,0.67481844
5043.504,0.67547394
5047.156,0.67626092
5050.813,0.67712412
5054.475,0.67803663
5058.143,0.67892057
5061.816,0.67970345
5065.495,0.68049056
5069.179,0.6816306
5072.868,0.68346179
5076.562,0.68587059
5080.262,0.68814942
5083.967,0.68946651
5087.678,0.68959746
5091.394,0.68912498
5095.115,0.68888897
5098.842,0.68932287
5102.574,0.6903006
5106.312,0.69145472
5110.055,0.69252906
5113.804,0.69347199
5117.558,0.69433153
5121.318,0.6951388
5125.083,0.69592524
5128.854,0.69690077
5132.63,0.69854928
5136.412,0.70131745
5140.199,0.7049779
5143.992,0.70832853
5147.791,0.70986959
5151.595,0.70910329
5155.405,0.70706504
5159.22,0.70539842
5163.041,0.70504623
5166.868,0.70581869
5170.7,0.70693312
5174.538,0.70780586
5178.382,0.70844826
5182.231,0.70934653
5186.086,0.71103327
5189.947,0.71364044
5193.814,0.71675054
5197.686,0.71974347
5201.564,0.72231527
5205.448,0.72447474
5209.338,0.72598065
5213.233,0.72614547
5217.134,0.72464618
5221.041,0.72242444
5224.954,0.72122007
5228.873,0.72203642
5232.798,0.72421326
5236.728,0.72609077
5240.665,0.72659683
5244.607,0.72605151
5248.555,0.72544533
5252.51,0.7253697
5256.47,0.72584167
5260.436,0.72678494
5264.408,0.72823095
5268.386,0.73006016
5272.37,0.73193803
5276.36,0.73372037
5280.356,0.73569529
5284.358,0.73809153
5288.367,0.74040494
5292.381,0.74158723
5296.401,0.74111239
5300.428,0.73964719
5304.46,0.73843066
5308.499,0.73819405
5312.544,0.73883935
5316.595,0.73989791
5320.652,0.74096843
5324.715,0.74181885
5328.785,0.74258788
5332.86,0.7441652
5336.942,0.74794819
5341.031,0.75453766
5345.125,0.76234262
5349.226,0.76783362
5353.333,0.7682413
5357.446,0.76428865
5361.566,0.75942011
5365.692,0.75661835
5369.824,0.75654922
5373.962,0.75806066
5378.107,0.75975966
5382.259,0.76114082
5386.417,0.76254833
5390.581,0.76445217
5394.751,0.76702038
5398.928,0.7703959
5403.112,0.77525362
5407.302,0.78276418
5411.498,0.79353364
5415.701,0.80612221
5419.911,0.816775
5424.127,0.82200182
5428.349,0.8223323
5432.579,0.82226022
5436.814,0.82621718
5441.057,0.83568803
5445.305,0.84980458
5449.561,0.8679566
5453.823,0.89145144
5458.092,0.9221799
5462.368,0.95983201
5466.65,0.0100133713
5470.939,0.010441866
5475.234,0.0108989185
5479.537,0.0114276783
5483.846,0.0120662827
5488.162,0.0128538374
5492.484,0.0138754901
5496.814,0.0152905661
5501.15,0.017315453
5505.493,0.0201457271
5509.843,0.0235907642
5514.2,0.0261316487
5518.564,0.0241316058
5522.934,0.0185816472
5527.312,0.0136044048
5531.696,0.010017694
5536.087,0.74136465
5540.486,0.54797925
5544.891,0.40426579
5549.303,0.29941348
5553.723,0.22649925
5558.149,0.17801899
5562.582,0.14862951
5567.023,0.13531128
5571.47,0.13491806
5575.925,0.14393189
5580.387,0.15665134
5584.856,0.17168624
5589.332,0.1879188
5593.815,0.2042025
5598.305,0.22013456
5602.803,0.23532278
5607.307,0.24949798
5611.819,0.26264429
5616.339,0.27485226
5620.865,0.28604738
5625.399,0.29595401
5629.94,0.3044128
5634.489,0.3117729
5639.044,0.31893015
5643.607,0.32682057
5648.178,0.33572111
5652.756,0.34504174
5657.341,0.35383091
5661.934,0.36146352
5666.534,0.36795019
5671.142,0.37376883
5675.757,0.3794607
5680.379,0.3852809
5685.01,0.39111223
5689.647,0.3966285
5694.293,0.40154502
5698.945,0.40579639
5703.606,0.40961036
5708.274,0.41346998
5712.949,0.41789339
5717.633,0.42303013
5722.324,0.4284308
5727.022,0.4333523
5731.729,0.4373796
5736.443,0.44072414
5741.165,0.44387361
5745.894,0.44693386
5750.631,0.44949942
5755.377,0.45132132
5760.13,0.45303107
5764.89,0.45596371
5769.659,0.46093066
5774.436,0.46722807
5779.22,0.47331369
5784.012,0.4782511
5788.813,0.48217948
5793.621,0.48567419
5798.437,0.48890449
5803.262,0.49144108
5808.094,0.49283292
5812.934,0.49331758
5817.782,0.49401551
5822.639,0.49627693
5827.503,0.50050403
5832.376,0.50573654
5837.257,0.51058835
5842.146,0.51433459
5847.043,0.51713296
5851.948,0.5195055
5856.862,0.52165812
5861.783,0.52326598
5866.714,0.52392813
5871.652,0.52376562
5876.598,0.52355437
5881.553,0.52427036
5886.517,0.52643453
5891.488,0.5298882
5896.468,0.53413538
5901.457,0.53872875
5906.454,0.5432721
5911.459,0.54721446
5916.473,0.54985628
5921.495,0.55075684
5926.526,0.55032887
5931.565,0.55007228
5936.613,0.5516587
5941.67,0.55524885
5946.735,0.55930506
5951.809,0.56226947
5956.891,0.56378804
5961.982,0.56457157
5967.082,0.56554351
5972.19,0.56704319
5977.307,0.56877378
5982.433,0.57038748
5987.568,0.57187722
5992.711,0.57340216
5997.864,0.57492944
6003.025,0.57623163
6008.195,0.57725455
6013.374,0.57833698
6018.562,0.57980944
6023.759,0.58126645
6028.964,0.58153234
6034.179,0.57960179
6039.403,0.57593023
6044.636,0.57303627
6049.878,0.57362919
6055.129,0.57751685
6060.389,0.58204492
6065.658,0.58507059
6070.936,0.58643723
6076.224,0.5874276
6081.52,0.5891162
6086.826,0.59127825
6092.141,0.59289788
6097.466,0.59326499
6102.8,0.59259977
6108.143,0.59199359
6113.495,0.59259302
6118.857,0.59460454
6124.228,0.59729034
6129.609,0.59977571
6134.999,0.60161894
6140.398,0.60286416
6145.807,0.6038667
6151.226,0.60502293
6156.654,0.60646101
6162.091,0.60790228
6167.539,0.60893425
6172.996,0.6095277
6178.462,0.61031895
6183.938,0.61221538
6189.424,0.61549336
6194.92,0.61944087
6200.425,0.62306301
6205.94,0.62586877
6211.465,0.62798606
6217.0,0.62978333
6222.544,0.63149158
6228.099,0.63314523
6233.663,0.63476535
6239.237,0.63645376
6244.822,0.63829209
6250.416,0.64022268
6256.02,0.64207252
6261.635,0.64369318
6267.259,0.64507556
6272.893,0.64637075
6278.538,0.64778911
6284.193,0.64943916
6289.858,0.6512277
6295.533,0.65293543
6301.218,0.6544091
6306.914,0.65566512
6312.619,0.65676666
6318.336,0.65764188
6324.062,0.65810689
6329.799,0.65814762
6335.546,0.65818039
6341.304,0.65890299
6347.072,0.6606527
6352.851,0.66302499
6358.64,0.66529555
6364.44,0.66707975
6370.25,0.66858349
6376.071,0.67022187
6381.903,0.67191251
6387.745,0.67289634
6393.598,0.67235928
6399.461,0.67028206
6405.335,0.66797735
6411.221,0.66755297
6417.116,0.66998764
6423.023,0.67418665
6428.941,0.67846247
6434.869,0.6819423
6440.809,0.6845374
6446.759,0.6864491
6452.72,0.68787531
6458.693,0.68889168
6464.676,0.68934709
6470.671,0.6889369
6476.676,0.68767076
6482.693,0.68647123
6488.721,0.68692868
6494.76,0.68981527
6500.81,0.69421869
6506.872,0.6985603
6512.945,0.70186807
6519.029,0.70408892
6525.124,0.70570625
6531.231,0.70715969
6537.35,0.70853192
6543.48,0.70964231
6549.621,0.71031166
6555.774,0.71062815
6561.938,0.71108746
6568.114,0.71237073
6574.302,0.71476405
6580.501,0.71778948
6586.712,0.72060844
6592.934,0.72277613
6599.169,0.7244545
6605.415,0.72590619
6611.673,0.72693996
6617.943,0.72700871
6624.224,0.72598307
6630.518,0.72484567
6636.823,0.72514864
6643.141,0.72734932
6649.47,0.73042171
6655.812,0.73307846
6662.166,0.73469739
6668.532,0.73545801
6674.91,0.73603932
6681.3,0.73705562
6687.702,0.73864837
6694.117,0.74056949
6700.544,0.74243691
6706.983,0.74391443
6713.435,0.7448791
6719.899,0.74550945
6726.375,0.746137
6732.864,0.74699151
6739.365,0.74808803
6745.879,0.74928734
6752.406,0.75040835
6758.945,0.75129014
6765.497,0.75181654
6772.062,0.75197524
6778.639,0.75197341
6785.229,0.75220941
6791.832,0.75295251
6798.448,0.75407388
6805.076,0.75521442
6811.718,0.75615628
6818.372,0.75698355
6825.039,0.75788591
6831.72,0.75880427
6838.413,0.75940011
6845.12,0.75943461
6851.84,0.75918326
6858.573,0.75940629
6865.319,0.76063899
6872.078,0.76260991
6878.851,0.76464288
6885.637,0.76628908
6892.437,0.76748432
6899.25,0.76840497
6906.076,0.76927194
6912.916,0.77021507
6919.769,0.77123211
6926.636,0.77222001
6933.517,0.77307222
6940.411,0.77380533
6947.319,0.77461137
6954.241,0.77573451
6961.176,0.77723082
6968.125,0.77889305
6975.089,0.78044433
6982.066,0.78175447
6989.057,0.7828822
6996.062,0.78396036
7003.081,0.7850341
7010.114,0.78601018
7017.161,0.78678471
7024.223,0.78741507
7031.298,0.78813475
7038.388,0.78916449
7045.492,0.79048329
7052.611,0.79185296
7059.743,0.79306599
7066.891,0.79409815
7074.052,0.79503072
7081.229,0.79593591
7088.419,0.79684184
7095.625,0.79775878
7102.845,0.79868776
7110.079,0.79962615
7117.329,0.80060936
7124.593,0.80173095
7131.872,0.80306101
7139.166,0.80453707
7146.475,0.80596866
7153.799,0.80719719
7161.137,0.80824763
7168.491,0.8092959
7175.86,0.81049638
7183.244,0.81186216
7190.643,0.81328637
7198.058,0.81464062
7205.487,0.81587182
7212.933,0.81703659
7220.393,0.8182436
7227.869,0.81955909
7235.36,0.8209677
7242.867,0.8224121
7250.39,0.82384337
7257.928,0.82522717
7265.481,0.82651567
7273.051,0.82764766
7280.636,0.82860218
7288.237,0.82943623
7295.854,0.83027691
7303.487,0.83125908
7311.135,0.83245107
7318.8,0.83379645
7326.481,0.83511592
7334.178,0.83620939
7341.891,0.83700897
7349.62,0.83763216
7357.366,0.83827375
7365.128,0.83905951
7372.906,0.83999618
7380.701,0.8410287
7388.512,0.84209958
7396.34,0.84315868
7404.184,0.84414802
7412.045,0.8450333
7419.922,0.84586789
7427.817,0.84678868
7435.728,0.84791379
7443.656,0.84922044
7451.601,0.85052539
7459.562,0.85161342
7467.541,0.85240803
7475.537,0.85302489
7483.55,0.85365527
7491.58,0.85441071
7499.628,0.85527563
7507.692,0.85617091
7515.774,0.85704161
7523.874,0.85788167
7531.99,0.8587107
7540.125,0.85954715
7548.277,0.86040494
7556.446,0.86128569
7564.633,0.86216797
7572.838,0.86301362
7581.061,0.86379405
7589.302,0.86450869
7597.56,0.86518203
7605.837,0.86583821
7614.131,0.86649248
7622.444,0.86715137
7630.774,0.86781447
7639.123,0.86847206
7647.491,0.86912147
7655.876,0.86977739
7664.28,0.87047301
7672.702,0.87122852
7681.143,0.87202051
7689.602,0.8727888
7698.08,0.87348057
7706.577,0.87411027
7715.093,0.87476353
7723.627,0.87553455
7732.18,0.87643104
7740.752,0.87734268
7749.343,0.87812232
7757.953,0.87871413
7766.583,0.87920439
7775.231,0.87973932
7783.899,0.88039538
7792.586,0.88112889
7801.292,0.88184142
7810.018,0.88248766
7818.764,0.88309826
7827.529,0.88372805
7836.313,0.88438518
7845.117,0.88502019
7853.942,0.88557744
7862.786,0.88604268
7871.649,0.88644016
7880.533,0.88680716
7889.437,0.88717617
7898.361,0.88758981
7907.305,0.88811348
7916.27,0.88881166
7925.254,0.88969481
7934.26,0.89069286
7943.285,0.89169952
7952.331,0.89265001
7961.398,0.89355633
7970.485,0.89446854
7979.594,0.89541274
7988.723,0.89636861
7997.872,0.89729948
8007.043,0.89818937
8016.235,0.89904235
8025.448,0.89985963
8034.682,0.90063974
8043.937,0.90140128
8053.214,0.9021809
8062.512,0.90299617
8071.832,0.9038115
8081.173,0.90456122
8090.535,0.90520745
8099.92,0.90577963
8109.326,0.90633443
8118.754,0.90689846
8128.204,0.90745347
8137.676,0.90797358
8147.169,0.90846683
8156.686,0.9089681
8166.224,0.90950057
8175.785,0.91005821
8185.368,0.9106125
8194.973,0.91114334
8204.601,0.91164282
8214.252,0.91211749
8223.925,0.91257421
8233.621,0.91301883
8243.34,0.91345529
8253.082,0.91388671
8262.847,0.91431566
8272.635,0.91474506
8282.446,0.91517955
8292.281,0.91562326
8302.139,0.9160751
8312.02,0.9165261
8321.925,0.91696434
8331.853,0.91738567
8341.805,0.91780602
8351.781,0.91825443
8361.781,0.91875217
8371.804,0.91929688
8381.852,0.91986057
8391.924,0.92040381
8402.02,0.92088698
8412.14,0.9212881
8422.285,0.92162209
8432.454,0.9219496
8442.648,0.92234297
8452.866,0.92282519
8463.109,0.92334362
8473.377,0.92381293
8483.67,0.92419378
8493.988,0.92452773
8504.331,0.92488585
8514.699,0.9252988
8525.092,0.92574109
8535.511,0.92616874
8545.955,0.92656937
8556.425,0.92695721
8566.921,0.92734912
8577.442,0.92774377
8587.989,0.92813315
8598.562,0.9285282
8609.161,0.92895722
8619.786,0.92943457
8630.437,0.92992953
8641.115,0.93037497
8651.819,0.93072449
8662.55,0.93100156
8673.307,0.93128631
8684.091,0.93165495
8694.902,0.93211866
8705.739,0.93262993
8716.604,0.93312465
8727.496,0.93356921
8738.415,0.93396194
8749.361,0.93432249
8760.335,0.93467543
8771.336,0.93504066
8782.365,0.93543269
8793.422,0.93585175
8804.507,0.93628611
8815.619,0.93670591
8826.76,0.93707515
8837.928,0.93736864
8849.125,0.93759583
8860.351,0.93780656
8871.604,0.93806278
8882.887,0.93839056
8894.198,0.93876233
8905.538,0.93912046
8916.907,0.93943152
8928.305,0.93970074
8939.732,0.9399529
8951.188,0.94019073
8962.673,0.94039311
8974.189,0.94054622
8985.733,0.94066179
8997.308,0.94076563
9008.912,0.94086522
9020.546,0.94094656
9032.21,0.94099711
9043.905,0.94103444
9055.629,0.941092
9067.384,0.94119235
9079.17,0.94132471
9090.986,0.94144443
9102.833,0.94149731
9114.711,0.94144319
9126.62,0.9412892
9138.56,0.94109196
9150.531,0.94092517
9162.534,0.94082332
9174.568,0.94076593
9186.634,0.94070818
9198.731,0.94063145
9210.86,0.94055845
9223.022,0.94052785
9235.215,0.94055831
9247.441,0.94064951
9259.699,0.9407866
9271.99,0.94094929
9284.313,0.94111269
9296.669,0.94126115
9309.058,0.94140346
9321.48,0.94156728
9333.935,0.94177089
9346.423,0.94200678
9358.945,0.94224916
9371.5,0.9424818
9384.089,0.94271208
9396.712,0.94295645
9409.369,0.94322728
9422.06,0.94352534
9434.785,0.94385528
9447.545,0.94423155
9460.339,0.9446708
9473.167,0.94517207
9486.031,0.94569625
9498.929,0.94618332
9511.863,0.94658896
9524.832,0.94692178
9537.836,0.94724253
9550.876,0.94761297
9563.951,0.94805088
9577.062,0.9485284
9590.209,0.94901231
9603.393,0.94948773
9616.612,0.9499516
9629.868,0.95039146
9643.16,0.9507939
9656.49,0.95117377
9669.856,0.95156717
9683.259,0.95200551
9696.699,0.95249332
9710.176,0.95301724
9723.691,0.95356856
9737.244,0.95413545
9750.834,0.9546863
9764.463,0.95518187
9778.129,0.95561573
9791.834,0.95602331
9805.577,0.95645593
9819.359,0.95693361
9833.18,0.95743286
9847.039,0.95792971
9860.938,0.95843133
9874.875,0.9589706
9888.853,0.95956075
9902.869,0.96018065
9916.926,0.96078414
9931.022,0.96133586
9945.159,0.96182214
9959.336,0.96224809
9973.553,0.9626275
9987.811,0.96297923
10002.109,0.96332258
10016.449,0.96366028
10030.83,0.96397613
10045.252,0.9642449
10059.715,0.96446412
10074.221,0.96466165
10088.768,0.96488199
10103.357,0.96514307
10117.988,0.96541942
10132.662,0.96566079
10147.378,0.96583011
10162.137,0.96593467
10176.939,0.96601885
10191.784,0.96612926
10206.672,0.96628498
10221.604,0.96647046
10236.58,0.96665826
10251.6,0.96683492
10266.663,0.96700566
10281.771,0.96718251
10296.924,0.96737073
10312.121,0.96756783
10327.363,0.96776326
10342.65,0.96794047
10357.982,0.96808455
10373.36,0.96819047
10388.784,0.96827083
10404.253,0.96834022
10419.769,0.96839655
10435.331,0.96842177
10450.939,0.96840417
10466.594,0.96835416
10482.296,0.9682948
10498.045,0.96823176
10513.842,0.96814478
10529.686,0.96801023
10545.577,0.96782912
10561.517,0.96762583
10577.505,0.96742529
10593.542,0.96723706
10609.627,0.96705582
10625.761,0.96686435
10641.944,0.96664433
10658.176,0.96638404
10674.458,0.96609117
10690.79,0.9657892
10707.172,0.96550307
10723.604,0.96524331
10740.086,0.96500154
10756.619,0.96475904
10773.203,0.9645027
10789.839,0.96423273
10806.525,0.96396962
10823.264,0.96374735
10840.054,0.96358551
10856.896,0.9634702
10873.791,0.96334675
10890.738,0.96315948
10907.738,0.96288887
10924.791,0.9625707
10941.898,0.96226851
10959.058,0.96202647
10976.272,0.96183331
10993.541,0.96163315
11010.863,0.96137531
11028.24,0.96106402
11045.672,0.96075763
11063.16,0.96051065
11080.702,0.96031663
11098.301,0.96010481
11115.955,0.95979507
11133.665,0.95937033
11151.432,0.95889026
11169.256,0.95844422
11187.137,0.95809088
11205.075,0.95783054
11223.07,0.95762294
11241.124,0.95743195
11259.235,0.95724361
11277.405,0.95705692
11295.634,0.95687024
11313.921,0.95668672
11332.268,0.95652153
11350.675,0.95639674
11369.141,0.95632173
11387.667,0.95628597
11406.254,0.95627084
11424.901,0.95626263
11443.61,0.95625586
11462.38,0.95624864
11481.211,0.95624727
11500.105,0.95626519
11519.06,0.95630848
11538.079,0.95635648
11557.16,0.95636801
11576.304,0.95631344
11595.511,0.95620302
11614.783,0.95608135
11634.118,0.9559888
11653.518,0.95593581
11672.983,0.95591019
11692.513,0.95588992
11712.108,0.95585411
11731.769,0.95578296
11751.496,0.95566529
11771.29,0.95550887
11791.15,0.95533545
11811.077,0.95516185
11831.072,0.95498518
11851.134,0.95478532
11871.265,0.95455189
11891.464,0.95429441
11911.731,0.95403946
11932.068,0.95381068
11952.475,0.95361601
11972.951,0.95344449
11993.497,0.95327048
12014.114,0.9530598
12034.802,0.95279008
12055.562,0.95246193
12076.393,0.9520949
12097.296,0.95170971
12118.271,0.95131628
12139.32,0.95092291
12160.441,0.95054131
12181.636,0.95019383
12202.905,0.94990169
12224.249,0.94967346
12245.667,0.94949179
12267.16,0.94931239
12288.729,0.94908497
12310.373,0.94879126
12332.094,0.94846169
12353.892,0.94814482
12375.767,0.94786618
12397.719,0.94761655
12419.75,0.94738034
12441.859,0.94716278
12464.046,0.9469762
12486.313,0.94681133
12508.659,0.946645
12531.086,0.9464802
12553.593,0.94637154
12576.18,0.94639407
12598.85,0.9465788
12621.601,0.94687846
12644.434,0.94718903
12667.35,0.94741499
12690.349,0.9475147
12713.432,0.94750402
12736.599,0.94741886
12759.85,0.94728272
12783.187,0.94711021
12806.608,0.94692396
12830.116,0.94674843
12853.71,0.94657893
12877.391,0.94637661
12901.159,0.94609524
12925.016,0.94572365
12948.96,0.94528927
12972.993,0.94482697
12997.116,0.94435638
13021.329,0.94387538
13045.631,0.94338169
13070.025,0.94287225
13094.51,0.94234248
13119.087,0.94178379
13143.756,0.94118836
13168.518,0.94054662
13193.373,0.93986065
13218.322,0.93916697
13243.366,0.93853987
13268.505,0.93804495
13293.74,0.93766903
13319.07,0.93730446
13344.497,0.93682154
13370.021,0.93616365
13395.644,0.9353666
13421.364,0.93449838
13447.183,0.93358932
13473.102,0.93263778
13499.121,0.93165858
13525.24,0.93070883
13551.461,0.92984731
13577.783,0.92909084
13604.208,0.92838816
13630.736,0.92765042
13657.367,0.92680976
13684.103,0.92586802
13710.943,0.92488219
13737.889,0.92389412
13764.941,0.92286909
13792.099,0.92171079
13819.365,0.92035783
13846.739,0.91884506
13874.221,0.91727597
13901.813,0.91573779
13929.515,0.91425609
13957.327,0.91281564
13985.25,0.91139293
14013.285,0.90994876
14041.433,0.90840947
14069.694,0.90667697
14098.068,0.90467006
14126.558,0.90235091
14155.163,0.89972146
14183.883,0.89682856
14212.721,0.89376571
14241.676,0.89063941
14270.749,0.88750853
14299.94,0.88434034
14329.252,0.88101727
14358.684,0.87740769
14388.237,0.87345527
14417.911,0.86921954
14447.709,0.8648363
14477.629,0.86039172
14507.674,0.85580878
14537.844,0.85084995
14568.139,0.84527795
14598.561,0.83904474
14629.109,0.83229353
14659.786,0.82515061
14690.592,0.81758779
14721.528,0.80958308
14752.594,0.80134214
14783.791,0.79306538
14815.121,0.78431881
14846.583,0.77389391
14878.179,0.76078042
14909.91,0.74556111
14941.777,0.73068215
14973.78,0.71854588
15005.92,0.70896345
15038.198,0.69918132
15070.616,0.68645512
15103.173,0.67005075
15135.871,0.65103707
15168.712,0.6306783
15201.695,0.60927699
15234.821,0.58653148
15268.092,0.56248402
15301.509,0.53771827
15335.072,0.5128438
15368.783,0.48818306
15402.642,0.46391045
15436.651,0.44014604
15470.81,0.41682939
15505.12,0.39375137
15539.583,0.37084873
15574.199,0.34836897
15608.97,0.32671489
15643.896,0.30623836
15678.979,0.28720611
15714.22,0.26978609
15749.619,0.25389904
15785.178,0.23920226
15820.897,0.22536036
15856.779,0.21227946
15892.824,0.20010942
15929.033,0.18905742
15965.407,0.17905799
