Database of Origin,University of Winnipeg Spectrophotometer Facility
Sample Description,"HOSERLab master pyroxenes, FTIR data"
Date Added,2016-12-14 03:34:49.702379

Data ID,FTIR_PYX_07         
Sample ID,PYX042
Mineral Name,Orthopyroxene
Grain Size,<45 um
Viewing Geometry,"i=30, e=0"
Material Class,Inosilicate

Wavelength
2000.56,0.50290164
2001.142,0.50311216
2001.725,0.50332352
2002.307,0.50351312
2002.891,0.50359506
2003.474,0.50372027
2004.058,0.50407128
2004.643,0.50453453
2005.227,0.5049125
2005.812,0.50524244
2006.397,0.5056043
2006.983,0.5059111
2007.569,0.50612756
2008.155,0.50637744
2008.742,0.50666385
2009.329,0.50686475
2009.916,0.50706721
2010.504,0.50750313
2011.092,0.50813424
2011.68,0.50870737
2012.269,0.5091564
2012.858,0.50960355
2013.447,0.5100539
2014.037,0.51041606
2014.627,0.5106812
2015.217,0.51086185
2015.808,0.51092543
2016.399,0.51096724
2016.99,0.51121941
2017.582,0.51177276
2018.174,0.51244035
2018.766,0.51296202
2019.359,0.51322867
2019.952,0.51332686
2020.546,0.51344158
2021.139,0.51370816
2021.733,0.51410344
2022.328,0.51452638
2022.923,0.51492607
2023.518,0.51530214
2024.113,0.51564793
2024.709,0.51596597
2025.305,0.51626262
2025.902,0.51654193
2026.499,0.51684774
2027.096,0.51725388
2027.693,0.51771364
2028.291,0.51807402
2028.89,0.51831397
2029.488,0.51860608
2030.087,0.51905395
2030.686,0.5195683
2031.286,0.52001636
2031.886,0.52033938
2032.486,0.52054888
2033.087,0.52077123
2033.688,0.52118949
2034.289,0.52182111
2034.891,0.52249505
2035.493,0.52310626
2036.096,0.52367306
2036.698,0.52417582
2037.302,0.52458233
2037.905,0.5249782
2038.509,0.52542329
2039.113,0.52581425
2039.718,0.52608305
2040.322,0.52633613
2040.928,0.52662638
2041.533,0.52686971
2042.139,0.52706226
2042.746,0.52729346
2043.352,0.5275412
2043.959,0.52776524
2044.567,0.52809494
2045.174,0.52862374
2045.782,0.52918098
2046.391,0.52960723
2047.0,0.52999185
2047.609,0.53042019
2048.218,0.53078836
2048.828,0.53107376
2049.438,0.53142879
2050.049,0.53188694
2050.66,0.53230782
2051.271,0.53266695
2051.883,0.53307957
2052.495,0.5335681
2053.107,0.53405303
2053.72,0.53450559
2054.333,0.53490246
2054.947,0.53518827
2055.56,0.53541194
2056.175,0.53573942
2056.789,0.53623972
2057.404,0.53681192
2058.019,0.53731542
2058.635,0.53766732
2059.251,0.53788015
2059.867,0.53809369
2060.484,0.53844137
2061.101,0.53887737
2061.718,0.53925878
2062.336,0.5395545
2062.954,0.53981473
2063.573,0.54009231
2064.192,0.54050584
2064.811,0.54116233
2065.431,0.54189281
2066.051,0.54238138
2066.671,0.54262455
2067.292,0.54290844
2067.913,0.5433251
2068.534,0.54373351
2069.156,0.54412367
2069.778,0.54459255
2070.401,0.54505835
2071.024,0.5454312
2071.647,0.54587843
2072.271,0.54653113
2072.895,0.54719776
2073.519,0.54772044
2074.144,0.54824728
2074.769,0.54885699
2075.395,0.5493445
2076.02,0.54965097
2076.647,0.550009
2077.273,0.55045163
2077.9,0.55072144
2078.528,0.55085069
2079.155,0.55124217
2079.784,0.55204245
2080.412,0.55295943
2081.041,0.55376079
2081.67,0.55443038
2082.3,0.554864
2082.93,0.55495655
2083.56,0.55495141
2084.191,0.55520449
2084.822,0.55571834
2085.454,0.55626283
2086.085,0.55678848
2086.718,0.55734924
2087.35,0.5578639
2087.983,0.55827231
2088.617,0.55869533
2089.251,0.55920358
2089.885,0.5596823
2090.519,0.56007626
2091.154,0.56050422
2091.789,0.56101121
2092.425,0.56147255
2093.061,0.56180889
2093.697,0.56209652
2094.334,0.56243097
2094.971,0.56282662
2095.609,0.56323803
2096.247,0.56362276
2096.885,0.56400607
2097.524,0.56447886
2098.163,0.56505142
2098.803,0.56559313
2099.443,0.56600559
2100.083,0.56633085
2100.723,0.56664593
2101.364,0.56702303
2102.006,0.56756893
2102.648,0.56827842
2103.29,0.56892349
2103.932,0.56935458
2104.575,0.56974743
2105.219,0.57031077
2105.862,0.57097825
2106.506,0.5716351
2107.151,0.57232977
2107.796,0.57301184
2108.441,0.57344225
2109.087,0.57359431
2109.733,0.57376734
2110.379,0.57414848
2111.026,0.57462638
2111.673,0.57513463
2112.321,0.57573663
2112.969,0.57635065
2113.617,0.57679272
2114.266,0.57710047
2114.915,0.57746435
2115.565,0.57791206
2116.215,0.57834099
2116.865,0.57877249
2117.516,0.57930263
2118.167,0.5798974
2118.819,0.58044209
2119.471,0.58092065
2120.123,0.58138713
2120.776,0.58181594
2121.429,0.58213482
2122.082,0.58240344
2122.736,0.58279868
2123.391,0.58334624
2124.045,0.58382292
2124.7,0.58407609
2125.356,0.58427083
2126.012,0.58463253
2126.668,0.58514202
2127.325,0.5857095
2127.982,0.58636614
2128.64,0.58706444
2129.297,0.58763709
2129.956,0.58814656
2130.614,0.58886439
2131.274,0.58973788
2131.933,0.59037873
2132.593,0.59070393
2133.253,0.59102253
2133.914,0.59145656
2134.575,0.5918792
2135.237,0.59234931
2135.899,0.59299012
2136.561,0.593592
2137.224,0.5939147
2137.887,0.59414533
2138.55,0.59452557
2139.214,0.59490983
2139.879,0.59515364
2140.544,0.59548474
2141.209,0.59607317
2141.874,0.59670502
2142.54,0.59718602
2143.207,0.59761349
2143.873,0.59806674
2144.541,0.59850508
2145.208,0.59901032
2145.876,0.59968237
2146.545,0.60033391
2147.214,0.60072877
2147.883,0.60098835
2148.553,0.60141478
2149.223,0.60205549
2149.893,0.60271135
2150.564,0.60319664
2151.235,0.60343289
2151.907,0.60348916
2152.579,0.60359242
2153.252,0.60390483
2153.925,0.60431921
2154.598,0.60465587
2155.272,0.60493221
2155.946,0.60528416
2156.621,0.6057575
2157.296,0.60631968
2157.972,0.60691614
2158.647,0.60746046
2159.324,0.60792231
2160.001,0.6084228
2160.678,0.60905796
2161.355,0.60972536
2162.033,0.61030047
2162.712,0.61083712
2163.39,0.61140171
2164.07,0.61190059
2164.749,0.61225887
2165.429,0.61258238
2166.11,0.61296939
2166.791,0.61337105
2167.472,0.61376814
2168.154,0.61424772
2168.836,0.61479011
2169.519,0.61524448
2170.202,0.61560802
2170.885,0.61603339
2171.569,0.61651602
2172.254,0.61687547
2172.938,0.61708425
2173.624,0.6173129
2174.309,0.6176346
2174.995,0.61799072
2175.682,0.61840612
2176.368,0.61896221
2177.056,0.61960271
2177.743,0.62021319
2178.432,0.62079454
2179.12,0.6213313
2179.809,0.62165747
2180.499,0.62170403
2181.189,0.6216957
2181.879,0.62192999
2182.57,0.62250199
2183.261,0.62332118
2183.952,0.62420378
2184.644,0.62490276
2185.337,0.62528729
2186.03,0.62551284
2186.723,0.62584399
2187.417,0.626358
2188.111,0.62695397
2188.806,0.62753445
2189.501,0.62804542
2190.196,0.62844586
2190.892,0.62873571
2191.589,0.62894098
2192.285,0.62908557
2192.983,0.62926643
2193.68,0.62964004
2194.379,0.6302242
2195.077,0.63085424
2195.776,0.63141879
2196.476,0.63196817
2197.175,0.63255989
2197.876,0.63319111
2198.577,0.63385447
2199.278,0.63447678
2199.979,0.63489282
2200.682,0.63508629
2201.384,0.63529488
2202.087,0.63568857
2202.79,0.63614801
2203.494,0.63652432
2204.199,0.63688525
2204.903,0.63734402
2205.609,0.63785193
2206.314,0.63832274
2207.02,0.63878571
2207.727,0.63929684
2208.434,0.63981872
2209.141,0.6402622
2209.849,0.64058752
2210.557,0.640836
2211.266,0.64110032
2211.975,0.64147128
2212.685,0.6419774
2213.395,0.6425368
2214.106,0.64298828
2214.817,0.64325038
2215.528,0.64341197
2216.24,0.64358428
2216.952,0.64374121
2217.665,0.64388273
2218.379,0.64419506
2219.092,0.64479919
2219.806,0.64548672
2220.521,0.64598502
2221.236,0.64627579
2221.952,0.64641229
2222.668,0.64634638
2223.384,0.64619973
2224.101,0.64628935
2224.818,0.64665363
2225.536,0.64697136
2226.254,0.64709396
2226.973,0.64720178
2227.692,0.64741818
2228.412,0.64773663
2229.132,0.64822549
2229.853,0.64885633
2230.574,0.64933701
2231.295,0.64950528
2232.017,0.64958181
2232.74,0.649733
2233.462,0.64984922
2234.186,0.64992422
2234.91,0.65015124
2235.634,0.65052555
2236.359,0.65086674
2237.084,0.65119579
2237.809,0.65163126
2238.536,0.65208461
2239.262,0.65245016
2239.989,0.65279787
2240.717,0.65313028
2241.445,0.65334621
2242.173,0.65355116
2242.902,0.65390736
2243.631,0.65424387
2244.361,0.65434893
2245.092,0.65442033
2245.822,0.65470187
2246.554,0.65504485
2247.285,0.65528835
2248.017,0.6555894
2248.75,0.65598551
2249.483,0.65622472
2250.217,0.65627266
2250.951,0.65636125
2251.686,0.65648653
2252.421,0.65650833
2253.156,0.65662586
2253.892,0.65706317
2254.628,0.6575553
2255.365,0.65779024
2256.103,0.65796257
2256.841,0.65833557
2257.579,0.65874944
2258.318,0.65901643
2259.057,0.65925527
2259.797,0.65950871
2260.537,0.65962028
2261.278,0.65967469
2262.019,0.65995478
2262.761,0.66038696
2263.503,0.66059407
2264.246,0.66047616
2264.989,0.66024113
2265.732,0.65998281
2266.477,0.65967725
2267.221,0.65944802
2267.966,0.6594432
2268.712,0.65959284
2269.458,0.65974581
2270.204,0.65990139
2270.951,0.66013056
2271.699,0.66042999
2272.447,0.66074761
2273.195,0.66102924
2273.944,0.66119874
2274.694,0.66121116
2275.444,0.66114011
2276.194,0.66112927
2276.945,0.66122495
2277.696,0.66131177
2278.448,0.66126711
2279.201,0.66113172
2279.954,0.66105048
2280.707,0.66105086
2281.461,0.6609895
2282.215,0.66074798
2282.97,0.66035727
2283.725,0.65989016
2284.481,0.65934233
2285.237,0.65870674
2285.994,0.65807807
2286.752,0.65759994
2287.509,0.65735351
2288.268,0.65731911
2289.026,0.65739786
2289.786,0.65747995
2290.545,0.6575587
2291.306,0.65775524
2292.067,0.6581831
2292.828,0.65879449
2293.59,0.65940128
2294.352,0.65985543
2295.115,0.66015432
2295.878,0.66035366
2296.642,0.66045657
2297.406,0.66046291
2298.171,0.66042557
2298.936,0.66037258
2299.702,0.66025376
2300.468,0.66006296
2301.235,0.65989991
2302.002,0.65980648
2302.77,0.65966313
2303.539,0.65935538
2304.307,0.65891311
2305.077,0.65839428
2305.847,0.65778758
2306.617,0.65710865
2307.388,0.65644243
2308.159,0.65583302
2308.931,0.65525259
2309.703,0.65470724
2310.476,0.65426326
2311.25,0.65397383
2312.024,0.65388941
2312.798,0.65411811
2313.573,0.6547592
2314.348,0.65577634
2315.124,0.65697517
2315.901,0.65812437
2316.678,0.65908914
2317.455,0.65986413
2318.234,0.66048719
2319.012,0.66097395
2319.791,0.66134141
2320.571,0.66164014
2321.351,0.66193456
2322.131,0.66231752
2322.913,0.66291783
2323.694,0.66377528
2324.476,0.66474229
2325.259,0.66563642
2326.042,0.66642827
2326.826,0.66716233
2327.61,0.66780508
2328.395,0.66831747
2329.18,0.66875063
2329.966,0.6691583
2330.753,0.66954116
2331.54,0.66994304
2332.327,0.67043882
2333.115,0.67101371
2333.903,0.6715881
2334.692,0.67212326
2335.482,0.672583
2336.272,0.67291386
2337.062,0.67316774
2337.854,0.67349212
2338.645,0.67392944
2339.437,0.67436899
2340.23,0.67470108
2341.023,0.67489993
2341.817,0.6750376
2342.611,0.67529688
2343.406,0.67582079
2344.201,0.67649103
2344.997,0.67706037
2345.794,0.67746826
2346.591,0.67780349
2347.388,0.678098
2348.186,0.67843882
2348.985,0.6790171
2349.784,0.67977292
2350.583,0.68031501
2351.384,0.6804429
2352.184,0.68038588
2352.986,0.68037152
2353.787,0.68043271
2354.59,0.68066842
2355.393,0.68115981
2356.196,0.68167075
2357.0,0.68192891
2357.804,0.68205339
2358.609,0.68224279
2359.415,0.68238599
2360.221,0.68241825
2361.028,0.68260147
2361.835,0.68304101
2362.643,0.68342195
2363.451,0.68353253
2364.26,0.68351459
2365.069,0.68344736
2365.879,0.68324288
2366.69,0.68302526
2367.501,0.68304516
2368.312,0.68323249
2369.125,0.68329623
2369.937,0.68315228
2370.751,0.6828845
2371.564,0.68252427
2372.379,0.68217322
2373.194,0.68204461
2374.009,0.68216107
2374.825,0.68228791
2375.642,0.68228121
2376.459,0.68220953
2377.276,0.68212743
2378.095,0.68201722
2378.913,0.68192219
2379.733,0.68190341
2380.553,0.68193489
2381.373,0.68199389
2382.194,0.68212608
2383.016,0.68234888
2383.838,0.68261006
2384.661,0.68285452
2385.484,0.68303456
2386.308,0.68310672
2387.132,0.68310831
2387.957,0.68313498
2388.783,0.68320428
2389.609,0.6832742
2390.435,0.68338362
2391.263,0.68359893
2392.09,0.68386246
2392.919,0.6840667
2393.748,0.68422967
2394.577,0.68443872
2395.407,0.68469835
2396.238,0.68496014
2397.069,0.68523411
2397.901,0.68553707
2398.733,0.68584755
2399.566,0.68619124
2400.399,0.68663671
2401.233,0.68714453
2402.068,0.68757855
2402.903,0.68790832
2403.739,0.68825875
2404.575,0.68870007
2405.412,0.6891505
2406.25,0.68951735
2407.088,0.6897707
2407.926,0.68985906
2408.766,0.68974449
2409.606,0.6895591
2410.446,0.68952554
2411.287,0.68969392
2412.128,0.68993101
2412.971,0.69014356
2413.813,0.69031675
2414.657,0.69040055
2415.5,0.69038384
2416.345,0.69040476
2417.19,0.69056589
2418.036,0.69073929
2418.882,0.69074877
2419.729,0.69060515
2420.576,0.69039113
2421.424,0.69011789
2422.272,0.68984576
2423.122,0.6897196
2423.971,0.68974773
2424.822,0.68978196
2425.673,0.68978207
2426.524,0.68985851
2427.376,0.69001653
2428.229,0.69012463
2429.082,0.69014212
2429.936,0.69013033
2430.791,0.69006823
2431.646,0.68989117
2432.501,0.68966875
2433.358,0.68953173
2434.214,0.68947385
2435.072,0.68941185
2435.93,0.68938008
2436.789,0.68946184
2437.648,0.68959771
2438.508,0.68965111
2439.368,0.68965021
2440.229,0.68974151
2441.091,0.6899246
2441.953,0.69005619
2442.816,0.69009932
2443.679,0.69011072
2444.543,0.69003184
2445.408,0.68981291
2446.273,0.68967086
2447.139,0.68982039
2448.006,0.69007202
2448.873,0.69011145
2449.74,0.68998288
2450.609,0.68986947
2451.478,0.68969438
2452.347,0.68941086
2453.217,0.68927321
2454.088,0.68937069
2454.959,0.68938683
2455.831,0.68922354
2456.704,0.68922321
2457.577,0.68945792
2458.451,0.68953592
2459.325,0.68934353
2460.2,0.68917554
2461.076,0.68907135
2461.952,0.68885951
2462.829,0.68876486
2463.707,0.68910114
2464.585,0.68956969
2465.464,0.68969481
2466.343,0.68958803
2467.223,0.68958227
2468.104,0.68960501
2468.985,0.68954799
2469.867,0.68963357
2470.749,0.68992863
2471.632,0.69012631
2472.516,0.6901256
2473.4,0.69016994
2474.285,0.69031471
2475.171,0.69037841
2476.057,0.69038781
2476.944,0.69048841
2477.832,0.69057337
2478.72,0.69046412
2479.608,0.6902446
2480.498,0.6901048
2481.388,0.69010791
2482.278,0.6902374
2483.17,0.69038787
2484.062,0.69036844
2484.954,0.69015497
2485.847,0.68994685
2486.741,0.6898402
2487.636,0.68980441
2488.531,0.68995368
2489.427,0.69035672
2490.323,0.69068964
2491.22,0.69061518
2492.118,0.69028233
2493.016,0.68995321
2493.915,0.68957797
2494.814,0.68920023
2495.715,0.68915428
2496.615,0.68940396
2497.517,0.68945674
2498.419,0.6892618
2499.322,0.68929778
2500.225,0.68956752
2501.129,0.6895514
2502.034,0.68926909
2502.939,0.68927074
2503.845,0.68952281
2504.752,0.68949945
2505.659,0.68929321
2506.567,0.68941612
2507.476,0.68968586
2508.385,0.68958914
2509.295,0.68938572
2510.206,0.6896149
2511.117,0.68994961
2512.029,0.68982084
2512.942,0.68956987
2513.855,0.68972119
2514.769,0.68984841
2515.683,0.68948904
2516.598,0.68921426
2517.514,0.68951753
2518.431,0.68975104
2519.348,0.6894583
2520.266,0.68939407
2521.184,0.69000737
2522.103,0.69042295
2523.023,0.69009379
2523.944,0.68978449
2524.865,0.68988014
2525.787,0.68962097
2526.709,0.68894417
2527.632,0.68889668
2528.556,0.68956756
2529.48,0.6897879
2530.406,0.68938327
2531.331,0.68940191
2532.258,0.6898858
2533.185,0.68984727
2534.113,0.68948696
2535.041,0.68978319
2535.971,0.69035769
2536.9,0.6902224
2537.831,0.68994264
2538.762,0.69049828
2539.694,0.69121325
2540.627,0.69097765
2541.56,0.6903485
2542.494,0.69037452
2543.428,0.6906203
2544.364,0.6904287
2545.3,0.69047201
2546.236,0.69113973
2547.174,0.69138698
2548.112,0.69075564
2549.05,0.6904744
2549.99,0.69109781
2550.93,0.69135286
2551.87,0.69062282
2552.812,0.69019505
2553.754,0.6906673
2554.697,0.69088053
2555.64,0.69048163
2556.585,0.69057255
2557.529,0.69131244
2558.475,0.6914384
2559.421,0.6907947
2560.368,0.69064106
2561.316,0.69087549
2562.264,0.68995187
2563.213,0.68853937
2564.163,0.68864796
2565.113,0.68979302
2566.065,0.6902407
2567.016,0.69033815
2567.969,0.6910772
2568.922,0.69154192
2569.876,0.69074926
2570.831,0.69025032
2571.786,0.69107679
2572.742,0.69141272
2573.699,0.69015359
2574.656,0.6893773
2575.615,0.69001641
2576.573,0.69010015
2577.533,0.68922498
2578.493,0.68945318
2579.454,0.69065128
2580.416,0.69052868
2581.378,0.68930946
2582.342,0.68928052
2583.305,0.68993723
2584.27,0.68918224
2585.235,0.68840077
2586.201,0.68935261
2587.168,0.69014096
2588.135,0.68900747
2589.103,0.68835587
2590.072,0.68980053
2591.042,0.6914122
2592.012,0.69196302
2592.983,0.69294395
2593.955,0.69383832
2594.927,0.69140899
2595.9,0.68763611
2596.874,0.68732371
2597.849,0.68922377
2598.824,0.6900265
2599.8,0.68996582
2600.777,0.69078799
2601.755,0.69157479
2602.733,0.69069079
2603.712,0.68970288
2604.692,0.6901435
2605.672,0.69007381
2606.653,0.68854451
2607.635,0.68805581
2608.618,0.68921644
2609.601,0.68967233
2610.585,0.68891803
2611.57,0.68888882
2612.556,0.68976244
2613.542,0.68988658
2614.529,0.68926542
2615.517,0.68920518
2616.505,0.68929297
2617.495,0.68844033
2618.485,0.68760821
2619.475,0.6878548
2620.467,0.68806975
2621.459,0.68756127
2622.452,0.68756129
2623.446,0.688645
2624.44,0.68955468
2625.435,0.68935494
2626.431,0.68881693
2627.428,0.68888371
2628.426,0.68916524
2629.424,0.68901238
2630.423,0.68859495
2631.423,0.68821459
2632.423,0.68777773
2633.424,0.68736115
2634.426,0.68739798
2635.429,0.68794622
2636.432,0.6884949
2637.437,0.68870269
2638.442,0.68879525
2639.447,0.68890888
2640.454,0.68867751
2641.461,0.68801631
2642.469,0.6875609
2643.478,0.68762629
2644.488,0.68754705
2645.498,0.68691926
2646.509,0.68643923
2647.521,0.68662028
2648.534,0.68696913
2649.547,0.68710085
2650.561,0.68716505
2651.576,0.68692231
2652.592,0.68589838
2653.609,0.68463626
2654.626,0.68410081
2655.644,0.68407231
2656.663,0.68384072
2657.682,0.68350882
2658.703,0.68327072
2659.724,0.68264515
2660.746,0.6816802
2661.768,0.68142978
2662.792,0.68213049
2663.816,0.68257567
2664.841,0.68186435
2665.867,0.68052254
2666.894,0.67939218
2667.921,0.6785744
2668.949,0.67786982
2669.978,0.67664603
2671.008,0.67428154
2672.038,0.6717102
2673.07,0.67046036
2674.102,0.67025623
2675.135,0.66950811
2676.168,0.66730703
2677.203,0.66409645
2678.238,0.66047792
2679.274,0.6568184
2680.311,0.65369098
2681.349,0.65095572
2682.387,0.64748625
2683.426,0.64266348
2684.467,0.63711907
2685.507,0.63130784
2686.549,0.62486914
2687.591,0.61791919
2688.635,0.61113546
2689.679,0.60444335
2690.724,0.59730422
2691.769,0.58968552
2692.816,0.581292
2693.863,0.57069886
2694.911,0.55736466
2695.96,0.54339311
2697.01,0.53061644
2698.06,0.51849123
2699.112,0.50607083
2700.164,0.49323508
2701.217,0.47975465
2702.27,0.46531683
2703.325,0.45093674
2704.38,0.43825268
2705.437,0.4274803
2706.494,0.41796571
2707.552,0.40998801
2708.61,0.40409155
2709.67,0.39891453
2710.73,0.39227974
2711.791,0.3848446
2712.853,0.37894573
2713.916,0.37430174
2714.98,0.36872624
2716.044,0.36104793
2717.109,0.35153455
2718.175,0.34107138
2719.242,0.33202702
2720.31,0.32859761
2721.379,0.33272239
2722.448,0.34066524
2723.518,0.34753529
2724.589,0.35192239
2725.661,0.35418055
2726.734,0.35395709
2727.808,0.35139862
2728.882,0.34794
2729.958,0.34489046
2731.034,0.34278019
2732.111,0.34237409
2733.188,0.34451799
2734.267,0.3483346
2735.347,0.35130768
2736.427,0.3524382
2737.508,0.35293724
2738.59,0.35352558
2739.673,0.35328542
2740.757,0.3516941
2741.841,0.3496659
2742.927,0.34780767
2744.013,0.34610011
2745.1,0.34504791
2746.188,0.34502435
2747.277,0.34542455
2748.367,0.34555032
2749.457,0.34571368
2750.549,0.34637088
2751.641,0.34717822
2752.734,0.3477005
2753.828,0.3479328
2754.923,0.34751471
2756.019,0.34596601
2757.115,0.34426975
2758.213,0.34379213
2759.311,0.3442514
2760.41,0.34460613
2761.51,0.34454446
2762.611,0.34432226
2763.713,0.34396298
2764.816,0.34349651
2765.919,0.34338898
2767.024,0.34373807
2768.129,0.34398601
2769.235,0.34383915
2770.342,0.34363201
2771.45,0.34347547
2772.559,0.34315455
2773.669,0.34290815
2774.779,0.34317254
2775.891,0.34376801
2777.003,0.3442169
2778.116,0.34449443
2779.23,0.34475288
2780.345,0.3447613
2781.461,0.34439963
2782.578,0.34418245
2783.696,0.34451661
2784.814,0.34507084
2785.934,0.3453647
2787.054,0.34541577
2788.175,0.34546046
2789.297,0.34554565
2790.42,0.34569174
2791.544,0.34597286
2792.669,0.34626955
2793.795,0.3464021
2794.922,0.34648993
2796.049,0.34682098
2797.178,0.347348
2798.307,0.3477351
2799.437,0.34783644
2800.568,0.34776869
2801.7,0.34756133
2802.833,0.3471396
2803.967,0.34671596
2805.102,0.34673773
2806.238,0.34723411
2807.374,0.34779099
2808.512,0.34815476
2809.65,0.34840908
2810.789,0.34862475
2811.93,0.3487241
2813.071,0.34874206
2814.213,0.34886003
2815.356,0.34910884
2816.5,0.34935639
2817.645,0.34955803
2818.791,0.34972113
2819.937,0.34973166
2821.085,0.34957829
2822.233,0.34954119
2823.383,0.34981106
2824.533,0.35020061
2825.685,0.35046155
2826.837,0.35053731
2827.99,0.35041365
2829.144,0.35009663
2830.299,0.34979709
2831.455,0.34972801
2832.612,0.34974204
2833.77,0.34953557
2834.929,0.34910818
2836.089,0.34867276
2837.25,0.34831534
2838.411,0.34804426
2839.574,0.34789987
2840.737,0.34777787
2841.902,0.34750071
2843.067,0.34715252
2844.234,0.34696037
2845.401,0.34689044
2846.569,0.3467671
2847.739,0.34666356
2848.909,0.34673705
2850.08,0.34689405
2851.252,0.34701612
2852.425,0.34718522
2853.599,0.34734777
2854.774,0.3472231
2855.95,0.34683318
2857.127,0.34661341
2858.305,0.34675888
2859.484,0.34701715
2860.664,0.34720034
2861.844,0.34734033
2863.026,0.3473399
2864.209,0.34702877
2865.392,0.34653333
2866.577,0.34613442
2867.763,0.34586404
2868.949,0.34561303
2870.137,0.34544197
2871.325,0.34541237
2872.515,0.34533935
2873.705,0.34504825
2874.897,0.34467489
2876.089,0.34442576
2877.283,0.34427492
2878.477,0.3441178
2879.673,0.34399787
2880.869,0.34395988
2882.066,0.34388321
2883.265,0.34365019
2884.464,0.34335372
2885.664,0.34316525
2886.866,0.3431127
2888.068,0.34312922
2889.271,0.34319713
2890.476,0.34325884
2891.681,0.34312285
2892.887,0.34268895
2894.095,0.34216709
2895.303,0.34183062
2896.512,0.34167239
2897.723,0.34153566
2898.934,0.34143929
2900.146,0.3414803
2901.36,0.34156977
2902.574,0.34155068
2903.789,0.34145055
2905.006,0.34134833
2906.223,0.3411972
2907.441,0.34098389
2908.661,0.34083456
2909.881,0.34076911
2911.103,0.34061774
2912.325,0.34035684
2913.549,0.34024643
2914.773,0.34044753
2915.999,0.34076044
2917.225,0.34088919
2918.453,0.34075892
2919.681,0.34045347
2920.911,0.34007491
2922.142,0.33975103
2923.373,0.33957276
2924.606,0.33945859
2925.84,0.33924345
2927.075,0.33890458
2928.31,0.33856518
2929.547,0.33829906
2930.785,0.33811736
2932.024,0.33809488
2933.264,0.33831486
2934.505,0.33868818
2935.747,0.33900916
2936.99,0.33919237
2938.234,0.33931672
2939.479,0.33942935
2940.726,0.33947812
2941.973,0.33945628
2943.221,0.3394854
2944.471,0.33970893
2945.721,0.34014635
2946.973,0.34064445
2948.225,0.34094496
2949.479,0.34089977
2950.733,0.34066354
2951.989,0.34056647
2953.246,0.34076027
2954.504,0.34110034
2955.763,0.3413614
2957.023,0.34143853
2958.284,0.3413579
2959.546,0.3412556
2960.809,0.34131214
2962.073,0.3415781
2963.339,0.34192843
2964.605,0.34226431
2965.873,0.34260929
2967.141,0.34294581
2968.411,0.34318438
2969.681,0.34336863
2970.953,0.34366999
2972.226,0.34413482
2973.5,0.344669
2974.775,0.34523592
2976.051,0.34581067
2977.328,0.34622263
2978.607,0.34636092
2979.886,0.34643023
2981.167,0.34669369
2982.448,0.34709302
2983.731,0.34740443
2985.015,0.34759847
2986.3,0.34778362
2987.586,0.34799716
2988.873,0.34829908
2990.161,0.34882342
2991.45,0.3495046
2992.74,0.3500236
2994.032,0.35023967
2995.324,0.35040836
2996.618,0.35078133
2997.913,0.35128862
2999.209,0.35180547
3000.506,0.35240023
3001.804,0.35307912
3003.103,0.35360591
3004.404,0.35382629
3005.705,0.35390725
3007.008,0.35405066
3008.312,0.35425256
3009.616,0.35453893
3010.922,0.35508544
3012.23,0.3558788
3013.538,0.35658743
3014.847,0.3569948
3016.158,0.35722853
3017.469,0.35742095
3018.782,0.35754444
3020.096,0.35771142
3021.411,0.35816538
3022.727,0.35883297
3024.044,0.3593589
3025.363,0.35968888
3026.683,0.36014547
3028.003,0.36088557
3029.325,0.36176415
3030.648,0.36269702
3031.972,0.363645
3033.298,0.36432256
3034.624,0.36446019
3035.952,0.36428752
3037.281,0.36428453
3038.611,0.36457149
3039.942,0.36496586
3041.274,0.36543687
3042.607,0.36604574
3043.942,0.3666363
3045.278,0.36699834
3046.615,0.36718178
3047.953,0.36734843
3049.292,0.36749849
3050.632,0.36758605
3051.974,0.36772019
3053.317,0.36801655
3054.661,0.36839881
3056.006,0.36874323
3057.352,0.36909865
3058.7,0.36958787
3060.048,0.37019179
3061.398,0.37080048
3062.749,0.37139838
3064.101,0.37201083
3065.455,0.37250552
3066.809,0.37268398
3068.165,0.37259906
3069.522,0.37254347
3070.88,0.37268058
3072.239,0.3729426
3073.6,0.37332064
3074.962,0.37391943
3076.325,0.37466438
3077.689,0.37530539
3079.054,0.37576648
3080.421,0.3761638
3081.788,0.37650597
3083.157,0.37677028
3084.527,0.37717669
3085.899,0.37792755
3087.271,0.37877084
3088.645,0.37928748
3090.02,0.37948873
3091.396,0.37968522
3092.774,0.37994029
3094.153,0.38012865
3095.532,0.38034421
3096.914,0.38079204
3098.296,0.38142982
3099.679,0.38207419
3101.064,0.38265027
3102.45,0.38307602
3103.837,0.38320345
3105.226,0.38312334
3106.616,0.38320455
3108.007,0.3836017
3109.399,0.38406348
3110.792,0.38440834
3112.187,0.38480791
3113.583,0.38541075
3114.98,0.38605201
3116.378,0.38654164
3117.778,0.38694023
3119.179,0.38737945
3120.581,0.38785051
3121.985,0.38831381
3123.389,0.38879934
3124.795,0.389306
3126.202,0.38977257
3127.611,0.39021676
3129.02,0.39074392
3130.431,0.39137616
3131.844,0.39201555
3133.257,0.39261971
3134.672,0.39327452
3136.088,0.39403032
3137.505,0.39479534
3138.924,0.39546795
3140.344,0.39607133
3141.765,0.39666266
3143.187,0.39720407
3144.611,0.39765216
3146.036,0.39810183
3147.462,0.39868507
3148.89,0.39937559
3150.319,0.40006242
3151.749,0.40074153
3153.18,0.40146502
3154.613,0.402172
3156.047,0.40277818
3157.482,0.40334125
3158.919,0.40393774
3160.357,0.40449599
3161.796,0.40496623
3163.236,0.40550309
3164.678,0.40623514
3166.121,0.40702351
3167.566,0.40768528
3169.011,0.40826904
3170.458,0.40888752
3171.907,0.40949855
3173.356,0.41007131
3174.807,0.41073885
3176.26,0.41158329
3177.713,0.4124883
3179.168,0.41333215
3180.624,0.41407792
3182.082,0.41461613
3183.541,0.41482335
3185.001,0.41484471
3186.463,0.41501305
3187.926,0.4154585
3189.39,0.41607375
3190.856,0.41681144
3192.323,0.41769784
3193.791,0.41859325
3195.26,0.41926168
3196.731,0.41967096
3198.204,0.41998779
3199.677,0.42033087
3201.152,0.42072765
3202.629,0.42121216
3204.106,0.42177611
3205.585,0.42231309
3207.066,0.42277414
3208.548,0.42329548
3210.031,0.4240476
3211.515,0.4250476
3213.001,0.42619315
3214.488,0.42735323
3215.977,0.42833919
3217.467,0.42893125
3218.958,0.42906993
3220.451,0.42896179
3221.945,0.42891687
3223.441,0.42912975
3224.938,0.42961132
3226.436,0.43021688
3227.936,0.43072557
3229.437,0.43104089
3230.939,0.43132989
3232.443,0.43184321
3233.948,0.43259996
3235.455,0.433381
3236.963,0.43400421
3238.472,0.43446428
3239.983,0.43485965
3241.495,0.4353227
3243.008,0.43595484
3244.523,0.43670093
3246.04,0.43737698
3247.558,0.43791436
3249.077,0.43843477
3250.598,0.4390314
3252.12,0.43968422
3253.643,0.4404353
3255.168,0.44135723
3256.694,0.44229682
3258.222,0.44292251
3259.751,0.44309943
3261.282,0.44299885
3262.814,0.44286005
3264.347,0.4428744
3265.882,0.44320274
3267.418,0.44383119
3268.956,0.44449911
3270.495,0.44497242
3272.036,0.4452768
3273.578,0.44553191
3275.122,0.44578245
3276.667,0.44611464
3278.213,0.44666848
3279.761,0.44739308
3281.31,0.44805559
3282.861,0.44857146
3284.413,0.44907269
3285.967,0.4496189
3287.522,0.45012029
3289.079,0.45056255
3290.637,0.45105892
3292.196,0.4516654
3293.757,0.45232018
3295.32,0.45292008
3296.884,0.45333418
3298.449,0.45345951
3300.016,0.45339622
3301.585,0.45343447
3303.155,0.45375471
3304.726,0.4542506
3306.299,0.45470757
3307.873,0.45503341
3309.449,0.45529225
3311.026,0.45561176
3312.605,0.45607123
3314.185,0.45662416
3315.767,0.45714608
3317.351,0.45758339
3318.936,0.45799541
3320.522,0.45847145
3322.11,0.45908217
3323.699,0.45987384
3325.29,0.4607971
3326.882,0.46167758
3328.476,0.46234181
3330.072,0.46271274
3331.669,0.46278225
3333.267,0.46262898
3334.867,0.4624779
3336.469,0.46254185
3338.072,0.46277802
3339.676,0.46299947
3341.282,0.4632061
3342.89,0.46354688
3344.499,0.4640118
3346.11,0.46444793
3347.722,0.46482261
3349.336,0.46517891
3350.952,0.46541033
3352.569,0.46537647
3354.187,0.46514489
3355.807,0.46486684
3357.429,0.46457179
3359.052,0.46430722
3360.677,0.46424463
3362.303,0.46438849
3363.931,0.46443131
3365.56,0.46412855
3367.191,0.46357624
3368.824,0.46295245
3370.458,0.46228212
3372.093,0.46159429
3373.731,0.46100535
3375.37,0.46052715
3377.01,0.46008527
3378.652,0.45976899
3380.296,0.45975936
3381.941,0.46002664
3383.588,0.46039781
3385.236,0.4608603
3386.886,0.46148878
3388.538,0.46216211
3390.191,0.46265978
3391.846,0.46296337
3393.502,0.46320491
3395.16,0.46339906
3396.82,0.46344413
3398.481,0.4633064
3400.144,0.46304117
3401.809,0.46268578
3403.475,0.46224336
3405.143,0.46169933
3406.812,0.4609911
3408.483,0.4600378
3410.156,0.45887971
3411.83,0.45773005
3413.506,0.45684724
3415.183,0.45636559
3416.862,0.4562907
3418.543,0.45661902
3420.226,0.45738839
3421.91,0.45857796
3423.596,0.46003431
3425.283,0.46157204
3426.972,0.4631164
3428.663,0.46468507
3430.355,0.46628952
3432.049,0.46792034
3433.745,0.46958222
3435.442,0.47124837
3437.141,0.47283606
3438.842,0.47429228
3440.545,0.47562822
3442.249,0.47679898
3443.954,0.47765204
3445.662,0.47810383
3447.371,0.47829994
3449.082,0.47848563
3450.794,0.47878263
3452.509,0.47918372
3454.224,0.47968648
3455.942,0.4802888
3457.661,0.48092121
3459.382,0.48152825
3461.105,0.48214698
3462.829,0.4827627
3464.556,0.48319568
3466.283,0.48331611
3468.013,0.48325458
3469.744,0.48320219
3471.477,0.48315658
3473.212,0.48307265
3474.948,0.48306933
3476.686,0.48323234
3478.426,0.48342455
3480.168,0.48353837
3481.911,0.48369456
3483.656,0.48398479
3485.403,0.48431223
3487.152,0.48466159
3488.902,0.48514614
3490.654,0.48561814
3492.408,0.48567099
3494.164,0.48519873
3495.921,0.48453905
3497.68,0.48396929
3499.441,0.48351442
3501.204,0.48328668
3502.968,0.48351521
3504.734,0.48419353
3506.502,0.48513149
3508.272,0.48631987
3510.043,0.48783697
3511.817,0.48951148
3513.592,0.49108116
3515.368,0.49253561
3517.147,0.49396599
3518.927,0.49529285
3520.71,0.49643736
3522.494,0.49749774
3524.28,0.49851661
3526.067,0.49935623
3527.857,0.50001892
3529.648,0.5007783
3531.441,0.50179617
3533.236,0.50286329
3535.032,0.50368032
3536.831,0.50416094
3538.631,0.50437217
3540.433,0.50440139
3542.237,0.50438134
3544.043,0.50446945
3545.851,0.50472707
3547.66,0.50509779
3549.471,0.50551995
3551.284,0.50595936
3553.099,0.50635649
3554.916,0.50664335
3556.735,0.5068419
3558.555,0.50705851
3560.378,0.50735979
3562.202,0.50769543
3564.028,0.50799109
3565.856,0.50827278
3567.686,0.50863507
3569.518,0.50908257
3571.351,0.50948755
3573.187,0.50973053
3575.024,0.50980137
3576.863,0.50976915
3578.704,0.50975319
3580.547,0.5099168
3582.392,0.51034151
3584.239,0.51086827
3586.088,0.51122056
3587.938,0.51131781
3589.791,0.51134035
3591.645,0.5114696
3593.501,0.51172906
3595.359,0.51205686
3597.22,0.51234911
3599.082,0.51244881
3600.946,0.51230244
3602.811,0.51209592
3604.679,0.51204944
3606.549,0.51214594
3608.421,0.51227394
3610.294,0.51249012
3612.17,0.51289407
3614.047,0.51337146
3615.926,0.51372258
3617.808,0.51391557
3619.691,0.51401991
3621.576,0.51406107
3623.463,0.51411023
3625.353,0.51429775
3627.244,0.51460362
3629.137,0.51485277
3631.032,0.5149996
3632.929,0.51516848
3634.828,0.51539299
3636.729,0.51557491
3638.632,0.51570624
3640.537,0.51587485
3642.444,0.51608818
3644.353,0.51631823
3646.263,0.51663946
3648.176,0.51709764
3650.091,0.51755209
3652.008,0.51780263
3653.927,0.51779203
3655.848,0.51760104
3657.771,0.51738365
3659.696,0.51732027
3661.623,0.51749311
3663.552,0.51778768
3665.483,0.51803194
3667.416,0.51817918
3669.351,0.51827965
3671.288,0.51837178
3673.227,0.51849043
3675.168,0.51867952
3677.111,0.51894025
3679.057,0.5192273
3681.004,0.51949366
3682.953,0.51967083
3684.905,0.51968319
3686.858,0.5195543
3688.814,0.519427
3690.771,0.51941399
3692.731,0.51951725
3694.693,0.51971011
3696.656,0.51997937
3698.622,0.52027167
3700.59,0.52051249
3702.56,0.52068137
3704.532,0.52079949
3706.507,0.52086933
3708.483,0.52088868
3710.461,0.5208868
3712.442,0.52090039
3714.425,0.52093887
3716.409,0.52100657
3718.396,0.52112049
3720.385,0.52129668
3722.376,0.52151563
3724.37,0.52173773
3726.365,0.52195975
3728.362,0.52222731
3730.362,0.52253697
3732.364,0.52279591
3734.368,0.5229445
3736.374,0.52305597
3738.382,0.52321626
3740.392,0.52342523
3742.405,0.52367689
3744.419,0.52399653
3746.436,0.52432317
3748.455,0.52454575
3750.476,0.52467754
3752.499,0.5247981
3754.525,0.52485971
3756.553,0.52481812
3758.582,0.52482883
3760.614,0.52504147
3762.649,0.52533485
3764.685,0.52552858
3766.724,0.52563401
3768.764,0.52569105
3770.807,0.52564043
3772.853,0.52554892
3774.9,0.52560985
3776.95,0.52579907
3779.001,0.52590917
3781.056,0.52595029
3783.112,0.52610423
3785.17,0.52634772
3787.231,0.52652841
3789.294,0.52667288
3791.359,0.52684326
3793.427,0.52691837
3795.496,0.52684674
3797.568,0.52682903
3799.643,0.52697359
3801.719,0.52711939
3803.798,0.52716608
3805.879,0.52721188
3807.962,0.52726193
3810.048,0.52721198
3812.135,0.52713496
3814.225,0.52719646
3816.318,0.52734037
3818.412,0.52739961
3820.509,0.52738604
3822.609,0.52738128
3824.71,0.52734083
3826.814,0.52725703
3828.92,0.52727539
3831.029,0.52743527
3833.139,0.52755804
3835.252,0.52753894
3837.368,0.52750847
3839.486,0.52760932
3841.606,0.52783829
3843.728,0.52813578
3845.853,0.52845179
3847.98,0.52872601
3850.109,0.5289435
3852.241,0.5291765
3854.375,0.52946912
3856.512,0.5297523
3858.65,0.52993613
3860.792,0.53002074
3862.935,0.53006474
3865.081,0.53010815
3867.229,0.53016502
3869.38,0.53025873
3871.533,0.53042515
3873.689,0.53067482
3875.846,0.53094992
3878.007,0.53116354
3880.169,0.53129596
3882.334,0.53141126
3884.502,0.53155618
3886.672,0.53173248
3888.844,0.53196247
3891.019,0.53228749
3893.196,0.53266933
3895.375,0.53300285
3897.557,0.533238
3899.742,0.53339886
3901.929,0.53348111
3904.118,0.53346721
3906.31,0.53342827
3908.504,0.53347236
3910.7,0.53358899
3912.9,0.53367567
3915.101,0.53369534
3917.305,0.5336653
3919.512,0.53354891
3921.721,0.53333367
3923.932,0.53315089
3926.146,0.53312915
3928.363,0.53319857
3930.581,0.53323088
3932.803,0.5332553
3935.027,0.53334935
3937.253,0.53345237
3939.482,0.53351096
3941.714,0.53362355
3943.948,0.53386314
3946.184,0.53413513
3948.423,0.53436666
3950.665,0.53460091
3952.909,0.53480875
3955.156,0.53487444
3957.405,0.53486537
3959.657,0.53500339
3961.911,0.53532683
3964.168,0.53567172
3966.427,0.53597916
3968.689,0.53631383
3970.954,0.53665034
3973.221,0.53692872
3975.491,0.53722127
3977.763,0.53758342
3980.038,0.53788296
3982.315,0.53800007
3984.595,0.5380344
3986.878,0.53813438
3989.163,0.53829743
3991.451,0.53845688
3993.742,0.5386095
3996.035,0.53878089
3998.33,0.53900375
4000.629,0.53932098
4002.93,0.53969629
4005.233,0.53998768
4007.54,0.54011489
4009.849,0.54015404
4012.16,0.54020745
4014.475,0.54029847
4016.791,0.54042285
4019.111,0.54056817
4021.433,0.54068562
4023.758,0.54073403
4026.086,0.54073296
4028.416,0.54072138
4030.749,0.54073428
4033.085,0.54083034
4035.423,0.54103465
4037.764,0.54124961
4040.108,0.54137133
4042.454,0.5414638
4044.804,0.54167592
4047.155,0.54201641
4049.51,0.54236584
4051.867,0.54265797
4054.228,0.54291924
4056.59,0.54315754
4058.956,0.54335237
4061.324,0.54351989
4063.695,0.54369123
4066.069,0.54384869
4068.446,0.5439802
4070.825,0.54415503
4073.207,0.54444611
4075.592,0.54480502
4077.98,0.54515057
4080.371,0.54553076
4082.764,0.54602776
4085.16,0.54654133
4087.559,0.54688765
4089.961,0.54708373
4092.365,0.54729604
4094.773,0.54756734
4097.183,0.54785169
4099.596,0.54822445
4102.012,0.5487495
4104.43,0.54928119
4106.852,0.54969259
4109.276,0.55009498
4111.703,0.55056021
4114.133,0.55092553
4116.566,0.55113372
4119.002,0.55140956
4121.441,0.55186279
4123.882,0.55232015
4126.327,0.55270569
4128.774,0.55313638
4131.224,0.55357209
4133.677,0.55385655
4136.133,0.55410215
4138.592,0.55455298
4141.054,0.55514666
4143.519,0.55565163
4145.987,0.55605803
4148.457,0.55645019
4150.931,0.55678567
4153.407,0.55709679
4155.887,0.55757011
4158.369,0.55820374
4160.854,0.558756
4163.343,0.5591335
4165.834,0.55946093
4168.328,0.55979389
4170.826,0.560124
4173.326,0.56053044
4175.829,0.56101584
4178.335,0.56143119
4180.844,0.56177408
4183.356,0.56222987
4185.872,0.5628198
4188.39,0.5634154
4190.911,0.56410417
4193.435,0.56512061
4195.963,0.56653851
4198.493,0.56842234
4201.026,0.57100465
4203.563,0.57433057
4206.102,0.57808165
4208.645,0.58210375
4211.19,0.5865872
4213.739,0.59141342
4216.291,0.59599528
4218.846,0.60009696
4221.404,0.60399499
4223.965,0.60767605
4226.529,0.61088261
4229.096,0.61387892
4231.666,0.6169129
4234.24,0.61932395
4236.816,0.6204527
4239.396,0.62076053
4241.979,0.62071048
4244.565,0.61960269
4247.154,0.61659403
4249.746,0.61195695
4252.341,0.60676677
4254.94,0.6024104
4257.542,0.60041966
4260.146,0.60176456
4262.754,0.60598176
4265.366,0.61125159
4267.98,0.61566364
4270.598,0.6183645
4273.219,0.61942715
4275.843,0.61938896
4278.47,0.61914987
4281.1,0.61941797
4283.734,0.62015252
4286.371,0.62098042
4289.011,0.62179579
4291.655,0.62245919
4294.301,0.62257033
4296.951,0.62206393
4299.604,0.62150045
4302.261,0.62129342
4304.92,0.62118615
4307.583,0.62074341
4310.25,0.61988998
4312.919,0.61874854
4315.592,0.61745875
4318.268,0.61629782
4320.948,0.61553642
4323.631,0.61508807
4326.317,0.61464577
4329.006,0.61413033
4331.699,0.61364848
4334.395,0.61313766
4337.095,0.61247812
4339.797,0.61184461
4342.504,0.61153723
4345.213,0.61156984
4347.926,0.61178295
4350.642,0.61213675
4353.362,0.61257209
4356.085,0.61288578
4358.811,0.61307256
4361.541,0.61343691
4364.275,0.61410929
4367.011,0.61486585
4369.751,0.61558496
4372.495,0.61636369
4375.242,0.61712721
4377.992,0.6177346
4380.746,0.61843189
4383.504,0.61953028
4386.264,0.62079886
4389.029,0.6218474
4391.796,0.62281443
4394.567,0.62395854
4397.342,0.62504674
4400.12,0.62588496
4402.902,0.6268309
4405.687,0.62810343
4408.476,0.62930082
4411.268,0.63021998
4414.064,0.63125829
4416.863,0.63254063
4419.666,0.63363572
4422.472,0.63447224
4425.282,0.63545035
4428.096,0.63651747
4430.913,0.63726803
4433.734,0.63792271
4436.558,0.63900709
4439.386,0.64028391
4442.217,0.64113984
4445.052,0.64169646
4447.891,0.64242071
4450.733,0.64320219
4453.579,0.64379155
4456.428,0.64450111
4459.281,0.64556071
4462.138,0.64650743
4464.998,0.64698905
4467.863,0.64741463
4470.73,0.64817314
4473.602,0.64901025
4476.477,0.64964523
4479.355,0.65025875
4482.238,0.65098824
4485.124,0.65164078
4488.014,0.65214309
4490.908,0.65273106
4493.805,0.6535105
4496.706,0.65428682
4499.611,0.65493435
4502.519,0.6555666
4505.431,0.65625042
4508.347,0.65682006
4511.267,0.65713805
4514.191,0.65735028
4517.118,0.65770993
4520.049,0.65821644
4522.984,0.65871812
4525.923,0.65927081
4528.865,0.65997823
4531.812,0.66056161
4534.762,0.66067007
4537.716,0.66057603
4540.674,0.6608443
4543.635,0.66143191
4546.601,0.66186574
4549.57,0.66216866
4552.543,0.66269923
4555.521,0.66333633
4558.502,0.66372045
4561.487,0.66401681
4564.475,0.66447576
4567.468,0.66470129
4570.465,0.66436061
4573.465,0.66410089
4576.47,0.66457266
4579.478,0.66530386
4582.491,0.66567707
4585.507,0.66599399
4588.527,0.66657411
4591.551,0.66695333
4594.58,0.66691293
4597.612,0.66712295
4600.648,0.66790223
4603.688,0.66855095
4606.732,0.66860938
4609.781,0.66854094
4612.833,0.66858161
4615.889,0.66830686
4618.949,0.66777042
4622.014,0.66769953
4625.082,0.66810342
4628.155,0.66820484
4631.231,0.66796518
4634.312,0.66818085
4637.397,0.66883035
4640.485,0.66911817
4643.578,0.66908393
4646.675,0.6694188
4649.777,0.67000388
4652.882,0.67012802
4655.991,0.66999185
4659.105,0.67040942
4662.223,0.67124722
4665.345,0.67183556
4668.471,0.67244274
4671.601,0.67368807
4674.735,0.67521144
4677.874,0.67633332
4681.017,0.67718513
4684.164,0.67790604
4687.315,0.67795154
4690.471,0.67735446
4693.63,0.67731762
4696.794,0.67847594
4699.962,0.67999596
4703.135,0.68113281
4706.312,0.68220912
4709.493,0.68343182
4712.678,0.68431902
4715.868,0.68479201
4719.062,0.68540962
4722.26,0.68627423
4725.463,0.68697955
4728.669,0.68757917
4731.881,0.68842292
4735.096,0.68931759
4738.316,0.68983152
4741.541,0.69006697
4744.769,0.69035577
4748.002,0.69072863
4751.24,0.69117003
4754.482,0.69184054
4757.728,0.69270654
4760.979,0.69348571
4764.234,0.69408384
4767.494,0.69464794
4770.758,0.69522594
4774.026,0.69579372
4777.299,0.69638718
4780.577,0.69696462
4783.859,0.69740575
4787.145,0.69776115
4790.436,0.69815428
4793.732,0.69853291
4797.032,0.69883735
4800.336,0.69918186
4803.645,0.69957272
4806.959,0.69983747
4810.277,0.70011713
4813.6,0.70087128
4816.927,0.70206954
4820.259,0.70303942
4823.596,0.70339162
4826.937,0.70342625
4830.283,0.70347169
4833.633,0.70358321
4836.988,0.7039172
4840.348,0.70463693
4843.712,0.70551524
4847.081,0.70632135
4850.455,0.70731662
4853.833,0.70869784
4857.216,0.70999453
4860.604,0.71073721
4863.996,0.71127618
4867.393,0.71215986
4870.795,0.71314285
4874.202,0.71362515
4877.613,0.71368131
4881.03,0.7138419
4884.451,0.71428265
4887.876,0.71498806
4891.307,0.71619272
4894.742,0.71792623
4898.182,0.71960187
4901.627,0.72077348
4905.077,0.7217987
4908.532,0.72295392
4911.991,0.72371974
4915.456,0.72381295
4918.925,0.72395754
4922.399,0.72478205
4925.878,0.72598531
4929.362,0.72720353
4932.851,0.728534
4936.345,0.72975208
4939.844,0.73031741
4943.347,0.73054796
4946.856,0.73140157
4950.37,0.73289754
4953.888,0.73409048
4957.412,0.73461439
4960.941,0.73494679
4964.474,0.73531935
4968.013,0.73563764
4971.556,0.7361736
4975.105,0.73716781
4978.659,0.73804977
4982.218,0.73822144
4985.782,0.73816332
4989.351,0.73861086
4992.925,0.73936949
4996.504,0.73995991
5000.088,0.74055788
5003.678,0.74141646
5007.272,0.74231668
5010.872,0.7432007
5014.477,0.74437207
5018.087,0.74560786
5021.703,0.74614118
5025.323,0.74584203
5028.949,0.74541728
5032.58,0.74529558
5036.216,0.74529956
5039.857,0.74535451
5043.504,0.74561389
5047.156,0.74597122
5050.813,0.74618795
5054.475,0.7463568
5058.143,0.74667077
5061.816,0.74700091
5065.495,0.7471952
5069.179,0.74748551
5072.868,0.74817911
5076.562,0.74918045
5080.262,0.75009064
5083.967,0.75059267
5087.678,0.75061862
5091.394,0.75035102
5095.115,0.75013757
5098.842,0.750242
5102.574,0.75065558
5106.312,0.75117515
5110.055,0.7515874
5113.804,0.7517935
5117.558,0.75187309
5121.318,0.7520152
5125.083,0.75232994
5128.854,0.75286132
5132.63,0.75381823
5136.412,0.75544293
5140.199,0.7575151
5143.992,0.75932471
5147.791,0.76030733
5151.595,0.76045567
5155.405,0.76011471
5159.22,0.75978189
5163.041,0.76002189
5166.868,0.7610484
5170.7,0.76244477
5174.538,0.76372109
5178.382,0.76493374
5182.231,0.76636897
5186.086,0.76804969
5189.947,0.76998759
5193.814,0.77235174
5197.686,0.77496667
5201.564,0.77729376
5205.448,0.77919803
5209.338,0.78089261
5213.233,0.78201165
5217.134,0.78192755
5221.041,0.78115112
5224.954,0.78107869
5228.873,0.78223935
5232.798,0.78391941
5236.728,0.7854113
5240.665,0.78656599
5244.607,0.78729918
5248.555,0.78763719
5252.51,0.78807765
5256.47,0.78899814
5260.436,0.79012767
5264.408,0.7912363
5268.386,0.79262896
5272.37,0.79436409
5276.36,0.79596966
5280.356,0.79740918
5284.358,0.79921406
5288.367,0.80121793
5292.381,0.80241141
5296.401,0.80248033
5300.428,0.80226413
5304.46,0.80240976
5308.499,0.80281596
5312.544,0.80342972
5316.595,0.80440152
5320.652,0.80544659
5324.715,0.80610767
5328.785,0.80663781
5332.86,0.80781784
5336.942,0.81007634
5341.031,0.81328029
5345.125,0.81682248
5349.226,0.81940264
5353.333,0.81964554
5357.446,0.81772474
5361.566,0.81548125
5365.692,0.81440712
5369.824,0.81443867
5373.962,0.81481326
5378.107,0.81518896
5382.259,0.81554397
5386.417,0.81578909
5390.581,0.81599246
5394.751,0.81646114
5398.928,0.81731812
5403.112,0.81857188
5407.302,0.82063694
5411.498,0.82394438
5415.701,0.82773344
5419.911,0.83007899
5424.127,0.82978696
5428.349,0.82767674
5432.579,0.82539702
5436.814,0.82397497
5441.057,0.82383518
5445.305,0.82505328
5449.561,0.82727978
5453.823,0.83018803
5458.092,0.83384696
5462.368,0.83781542
5466.65,0.84054462
5470.939,0.84119704
5475.234,0.84109415
5479.537,0.84149451
5483.846,0.84155367
5488.162,0.84039846
5492.484,0.83915808
5496.814,0.83895068
5501.15,0.83953388
5505.493,0.84145714
5509.843,0.84628723
5514.2,0.85333475
5518.564,0.85960784
5522.934,0.86365446
5527.312,0.86600813
5531.696,0.86646945
5536.087,0.86540186
5540.486,0.86432143
5544.891,0.85821277
5549.303,0.83272673
5553.723,0.78463561
5558.149,0.74874658
5562.582,0.71518561
5567.023,0.71232152
5571.47,0.71855068
5575.925,0.71680771
5580.387,0.73501763
5584.856,0.76413786
5589.332,0.7830404
5593.815,0.79126697
5598.305,0.79766365
5602.803,0.80312835
5607.307,0.80470266
5611.819,0.80659459
5616.339,0.8122312
5620.865,0.81746523
5625.399,0.81880024
5629.94,0.82042759
5634.489,0.82486944
5639.044,0.82763343
5643.607,0.8258798
5648.178,0.82424582
5652.756,0.82480871
5657.341,0.82439825
5661.934,0.82310889
5666.534,0.82511642
5671.142,0.8297683
5675.757,0.83187513
5680.379,0.83106747
5685.01,0.83156007
5689.647,0.83322706
5694.293,0.83304878
5698.945,0.83299886
5703.606,0.83677994
5708.274,0.84194105
5712.949,0.84332733
5717.633,0.84227569
5722.324,0.8427186
5727.022,0.84346492
5731.729,0.84224842
5736.443,0.84191027
5741.165,0.84464748
5745.894,0.84716392
5750.631,0.84739493
5755.377,0.84950521
5760.13,0.85524777
5764.89,0.85882541
5769.659,0.85662682
5774.436,0.85361475
5779.22,0.85247592
5784.012,0.84996964
5788.813,0.8460388
5793.621,0.84526151
5798.437,0.84803394
5803.262,0.85035441
5808.094,0.85263085
5812.934,0.8584505
5817.782,0.86500866
5822.639,0.86552008
5827.503,0.86177161
5832.376,0.85990721
5837.257,0.85924169
5842.146,0.8570674
5847.043,0.85672674
5851.948,0.86088267
5856.862,0.86519993
5861.783,0.86595167
5866.714,0.86738823
5871.652,0.87222888
5876.598,0.87569036
5881.553,0.87478362
5886.517,0.87413337
5891.488,0.87471506
5896.468,0.87195276
5901.457,0.86695919
5906.454,0.86575315
5911.459,0.86805209
5916.473,0.8693991
5921.495,0.87073708
5926.526,0.87576019
5931.565,0.88105293
5936.613,0.88003871
5941.67,0.87537439
5946.735,0.87313641
5951.809,0.87251592
5956.891,0.8712712
5961.982,0.87168387
5967.082,0.87463274
5972.19,0.87613814
5977.307,0.87485266
5982.433,0.87471198
5987.568,0.87618988
5992.711,0.87526879
5997.864,0.87244542
6003.025,0.87213162
6008.195,0.8738129
6013.374,0.87316452
6018.562,0.87083941
6023.759,0.87113938
6028.964,0.87453583
6034.179,0.87865054
6039.403,0.88307526
6044.636,0.88708362
6049.878,0.88747095
6055.129,0.88466876
6060.389,0.88368405
6065.658,0.88549111
6070.936,0.88595417
6076.224,0.88320245
6081.52,0.88043288
6086.826,0.87987389
6092.141,0.88091445
6097.466,0.88347477
6102.8,0.8875676
6108.143,0.89040945
6113.495,0.88931193
6118.857,0.88630962
6124.228,0.88467976
6129.609,0.88464469
6134.999,0.88548236
6140.398,0.88751172
6145.807,0.89014674
6151.226,0.89142399
6156.654,0.89108662
6162.091,0.89097495
6167.539,0.89185948
6172.996,0.89293192
6178.462,0.89381167
6183.938,0.89442363
6189.424,0.89408778
6194.92,0.89296038
6200.425,0.89261851
6205.94,0.89360074
6211.465,0.89457762
6217.0,0.89474851
6222.544,0.89505784
6228.099,0.89593633
6233.663,0.8964036
6239.237,0.89613941
6244.822,0.89617405
6250.416,0.89684437
6256.02,0.89747585
6261.635,0.89811713
6267.259,0.89940567
6272.893,0.90068069
6278.538,0.90074588
6284.193,0.90009853
6289.858,0.90016618
6295.533,0.90086151
6301.218,0.90133179
6306.914,0.90199942
6312.619,0.90355784
6318.336,0.90526353
6324.062,0.90651445
6329.799,0.90817453
6335.546,0.91030728
6341.304,0.91101697
6347.072,0.91016652
6352.851,0.91044944
6358.64,0.91270653
6364.44,0.91446811
6370.25,0.91426958
6376.071,0.91360017
6381.903,0.91351127
6387.745,0.91380666
6393.598,0.91560077
6399.461,0.92007773
6405.335,0.92467785
6411.221,0.92525303
6417.116,0.92279726
6423.023,0.92086514
6428.941,0.91945117
6434.869,0.91773545
6440.809,0.91721301
6446.759,0.91844854
6452.72,0.91947767
6458.693,0.9198945
6464.676,0.92193405
6470.671,0.92571805
6476.676,0.92827569
6482.693,0.92856131
6488.721,0.92835633
6494.76,0.92773559
6500.81,0.92597713
6506.872,0.92500978
6512.945,0.9261239
6519.029,0.9271417
6525.124,0.926399
6531.231,0.92595447
6537.35,0.92728104
6543.48,0.92870304
6549.621,0.92936145
6555.774,0.93083862
6561.938,0.93304816
6568.114,0.93377845
6574.302,0.93334986
6580.501,0.93378887
6586.712,0.93434465
6592.934,0.93338901
6599.169,0.93245332
6605.415,0.93357347
6611.673,0.93584445
6617.943,0.93769425
6624.224,0.93936555
6630.518,0.94030914
6636.823,0.93859398
6643.141,0.93545733
6649.47,0.93444224
6655.812,0.93581075
6662.166,0.9370478
6668.532,0.9372251
6674.91,0.93740087
6681.3,0.93756607
6687.702,0.9372551
6694.117,0.93774267
6700.544,0.93978801
6706.983,0.94137284
6713.435,0.94076338
6719.899,0.93942573
6726.375,0.93895978
6732.864,0.93870378
6739.365,0.93829217
6745.879,0.93888893
6752.406,0.94063044
6758.945,0.9420777
6765.497,0.94295829
6772.062,0.94419508
6778.639,0.94512236
6785.229,0.94419103
6791.832,0.94238415
6798.448,0.94186811
6805.076,0.94253267
6811.718,0.94306387
6818.372,0.94352689
6825.039,0.94445121
6831.72,0.94528595
6838.413,0.94584558
6845.12,0.9471099
6851.84,0.94892813
6858.573,0.94930925
6865.319,0.94785026
6872.078,0.94659736
6878.851,0.94640268
6885.637,0.94633752
6892.437,0.94623807
6899.25,0.94674638
6906.076,0.94736591
6912.916,0.94714748
6919.769,0.94672472
6926.636,0.94716572
6933.517,0.94809503
6940.411,0.94876825
6947.319,0.94949276
6954.241,0.9503924
6961.176,0.95066763
6968.125,0.95036884
6975.089,0.95059023
6982.066,0.95137499
6989.057,0.95175252
6996.062,0.95173029
7003.081,0.95212894
7010.114,0.95286498
7017.161,0.95342447
7024.223,0.95418885
7031.298,0.95547617
7038.388,0.95640563
7045.492,0.95635609
7052.611,0.95610227
7059.743,0.95621229
7066.891,0.95625265
7074.052,0.95614472
7081.229,0.95645655
7088.419,0.95714268
7095.625,0.95761715
7102.845,0.95796562
7110.079,0.95863179
7117.329,0.95936198
7124.593,0.95977182
7131.872,0.96021616
7139.166,0.96102388
7146.475,0.96171783
7153.799,0.96183683
7161.137,0.96167214
7168.491,0.96163141
7175.86,0.96173032
7183.244,0.96199329
7190.643,0.96253713
7198.058,0.96316314
7205.487,0.96347813
7212.933,0.96345686
7220.393,0.96345323
7227.869,0.96371002
7235.36,0.96417261
7242.867,0.96471262
7250.39,0.96531504
7257.928,0.96595681
7265.481,0.96643434
7273.051,0.9665919
7280.636,0.96665036
7288.237,0.96691362
7295.854,0.96729921
7303.487,0.96762358
7311.135,0.96808493
7318.8,0.96885007
7326.481,0.96952836
7334.178,0.96974305
7341.891,0.9697663
7349.62,0.96991842
7357.366,0.9700756
7365.128,0.97023941
7372.906,0.97074603
7380.701,0.97151053
7388.512,0.97204444
7396.34,0.97236755
7404.184,0.97291632
7412.045,0.97358825
7419.922,0.97397053
7427.817,0.97422059
7435.728,0.97472021
7443.656,0.97529146
7451.601,0.97563235
7459.562,0.97590489
7467.541,0.97623868
7475.537,0.97639353
7483.55,0.97637324
7491.58,0.97652493
7499.628,0.97685625
7507.692,0.97705225
7515.774,0.9771315
7523.874,0.97735403
7531.99,0.97768948
7540.125,0.97798313
7548.277,0.97829715
7556.446,0.97866185
7564.633,0.97892955
7572.838,0.97909998
7581.061,0.97931084
7589.302,0.97952236
7597.56,0.97963624
7605.837,0.97973824
7614.131,0.9798592
7622.444,0.97985682
7630.774,0.97976382
7639.123,0.97979142
7647.491,0.97992796
7655.876,0.98003362
7664.28,0.98021124
7672.702,0.98058117
7681.143,0.98095516
7689.602,0.98118875
7698.08,0.98144271
7706.577,0.98175387
7715.093,0.98189075
7723.627,0.98185922
7732.18,0.98196478
7740.752,0.98225622
7749.343,0.98253438
7757.953,0.98282562
7766.583,0.98327428
7775.231,0.98372276
7783.899,0.98397423
7792.586,0.98416999
7801.292,0.98449041
7810.018,0.98483016
7818.764,0.98512585
7827.529,0.98555348
7836.313,0.98615113
7845.117,0.98668797
7853.942,0.98707414
7862.786,0.98748316
7871.649,0.98799657
7880.533,0.98849979
7889.437,0.98894963
7898.361,0.98939455
7907.305,0.98979209
7916.27,0.99007924
7925.254,0.99035706
7934.26,0.99074054
7943.285,0.99116942
7952.331,0.99154041
7961.398,0.99191411
7970.485,0.99238679
7979.594,0.99289602
7988.723,0.99331709
7997.872,0.99365435
8007.043,0.99397876
8016.235,0.99428861
8025.448,0.99455933
8034.682,0.99484204
8043.937,0.99516176
8053.214,0.99546449
8062.512,0.99572578
8071.832,0.99598187
8081.173,0.99621272
8090.535,0.99637139
8099.92,0.99654947
8109.326,0.99688066
8118.754,0.99729805
8128.204,0.99763277
8137.676,0.99787682
8147.169,0.99811576
8156.686,0.99834541
8166.224,0.99856597
8175.785,0.99889308
8185.368,0.99934417
8194.973,0.99975086
8204.601,0.0100003185
8214.252,0.0100029029
8223.925,0.0100056013
8233.621,0.010007635
8243.34,0.01000953
8253.082,0.0100127561
8262.847,0.0100170393
8272.635,0.010020907
8282.446,0.0100242748
8292.281,0.010027888
8302.139,0.0100315267
8312.02,0.010034871
8321.925,0.0100386596
8331.853,0.0100431326
8341.805,0.0100470884
8351.781,0.0100497094
8361.781,0.01005193
8371.804,0.0100548303
8381.852,0.0100582305
8391.924,0.0100614053
8402.02,0.0100644498
8412.14,0.0100677396
8422.285,0.0100709615
8432.454,0.0100734208
8442.648,0.0100753776
8452.866,0.0100776664
8463.109,0.0100802065
8473.377,0.0100823092
8483.67,0.0100844771
8493.988,0.010087448
8504.331,0.0100902732
8514.699,0.0100917031
8525.092,0.01009278
8535.511,0.0100948828
8545.955,0.0100970333
8556.425,0.010098042
8566.921,0.010099138
8577.442,0.0101012186
8587.989,0.0101028964
8598.562,0.0101036028
8609.161,0.0101049891
8619.786,0.0101073258
8630.437,0.0101089783
8641.115,0.0101101004
8651.819,0.0101124642
8662.55,0.0101156408
8673.307,0.0101179428
8684.091,0.0101199013
8694.902,0.0101226476
8705.739,0.0101253829
8716.604,0.0101274961
8727.496,0.0101301901
8738.415,0.0101337359
8749.361,0.010136687
8760.335,0.0101387935
8771.336,0.0101411366
8782.365,0.01014373
8793.422,0.010146243
8804.507,0.0101494391
8815.619,0.0101533285
8826.76,0.0101568313
8837.928,0.0101603496
8849.125,0.0101649157
8860.351,0.0101692873
8871.604,0.0101720036
8882.887,0.0101744799
8894.198,0.0101780738
8905.538,0.0101813635
8916.907,0.0101838112
8928.305,0.0101870845
8939.732,0.0101905428
8951.188,0.0101915994
8962.673,0.0101913991
8974.189,0.0101929967
8985.733,0.0101952156
8997.308,0.0101952172
9008.912,0.0101945559
9020.546,0.0101952969
9032.21,0.010195175
9043.905,0.0101926955
9055.629,0.0101911192
9067.384,0.0101919034
9079.17,0.01019185
9090.986,0.0101898748
9102.833,0.0101888347
9114.711,0.0101885085
9126.62,0.0101857177
9138.56,0.0101812636
9150.531,0.010178533
9162.534,0.0101767098
9174.568,0.0101731583
9186.634,0.0101692922
9198.731,0.0101674953
9210.86,0.0101661047
9223.022,0.0101633656
9235.215,0.0101612193
9247.441,0.0101610956
9259.699,0.0101608068
9271.99,0.010158982
9284.313,0.0101573749
9296.669,0.0101570537
9309.058,0.0101566786
9321.48,0.010155685
9333.935,0.0101551183
9346.423,0.0101551874
9358.945,0.0101549487
9371.5,0.0101546698
9384.089,0.0101555867
9396.712,0.0101577749
9409.369,0.0101600415
9422.06,0.0101618944
9434.785,0.0101638186
9447.545,0.0101660123
9460.339,0.0101680588
9473.167,0.010170157
9486.031,0.0101729239
9498.929,0.0101760935
9511.863,0.0101786722
9524.832,0.0101805495
9537.836,0.0101825071
9550.876,0.0101847965
9563.951,0.0101870288
9577.062,0.0101892709
9590.209,0.0101915569
9603.393,0.0101932085
9616.612,0.0101938164
9629.868,0.0101941279
9643.16,0.010194864
9656.49,0.010196003
9669.856,0.0101975632
9683.259,0.0101997361
9696.699,0.0102018649
9710.176,0.0102030805
9723.691,0.0102034781
9737.244,0.0102035969
9750.834,0.010203301
9764.463,0.0102025886
9778.129,0.0102019305
9791.834,0.0102011929
9805.577,0.0101997675
9819.359,0.0101983238
9833.18,0.0101979852
9847.039,0.0101983994
9860.938,0.0101983701
9874.875,0.0101980886
9888.853,0.0101983124
9902.869,0.010198714
9916.926,0.0101985921
9931.022,0.0101983731
9945.159,0.010198527
9959.336,0.0101987102
9973.553,0.0101988479
9987.811,0.0101996909
10002.109,0.010201205
10016.449,0.0102023164
10030.83,0.010202539
10045.252,0.0102026772
10059.715,0.0102032524
10074.221,0.0102039396
10088.768,0.0102047054
10103.357,0.0102062347
10117.988,0.0102085179
10132.662,0.0102105949
10147.378,0.0102120546
10162.137,0.0102136803
10176.939,0.0102160124
10191.784,0.0102186306
10206.672,0.0102212636
10221.604,0.0102242916
10236.58,0.0102274944
10251.6,0.0102300547
10266.663,0.0102321358
10281.771,0.0102346498
10296.924,0.0102372592
10312.121,0.0102388744
10327.363,0.0102397289
10342.65,0.0102409276
10357.982,0.0102423351
10373.36,0.0102432923
10388.784,0.0102441411
10404.253,0.010245273
10419.769,0.0102459952
10435.331,0.0102460654
10450.939,0.0102461501
10466.594,0.0102461461
10482.296,0.0102453376
10498.045,0.0102443203
10513.842,0.0102440799
10529.686,0.0102442789
10545.577,0.0102445919
10561.517,0.0102459231
10577.505,0.0102480466
10593.542,0.0102491907
10609.627,0.0102490808
10625.761,0.0102490053
10641.944,0.0102484997
10658.176,0.0102464838
10674.458,0.0102443667
10690.79,0.0102437188
10707.172,0.0102431637
10723.604,0.0102419867
10740.086,0.0102422502
10756.619,0.0102441762
10773.203,0.0102446613
10789.839,0.0102433236
10806.525,0.010242883
10823.264,0.0102431145
10840.054,0.0102417205
10856.896,0.0102405503
10873.791,0.0102424844
10890.738,0.010245227
10907.738,0.0102457037
10924.791,0.0102460999
10941.898,0.010248322
10959.058,0.0102495032
10976.272,0.0102484339
10993.541,0.0102486196
11010.863,0.0102507852
11028.24,0.0102515487
11045.672,0.0102509495
11063.16,0.0102521125
11080.702,0.0102538153
11098.301,0.0102530754
11115.955,0.0102518661
11133.665,0.0102527913
11151.432,0.0102530546
11169.256,0.010250123
11187.137,0.0102467151
11205.075,0.0102449979
11223.07,0.0102429586
11241.124,0.0102400008
11259.235,0.0102380616
11277.405,0.0102367467
11295.634,0.0102341949
11313.921,0.0102316591
11332.268,0.0102308062
11350.675,0.010230003
11369.141,0.0102278147
11387.667,0.0102258466
11406.254,0.0102248084
11424.901,0.0102231309
11443.61,0.0102206034
11462.38,0.0102185388
11481.211,0.0102165882
11500.105,0.0102139814
11519.06,0.0102117907
11538.079,0.0102106207
11557.16,0.0102089605
11576.304,0.0102063868
11595.511,0.0102044021
11614.783,0.0102032607
11634.118,0.0102015947
11653.518,0.010199495
11672.983,0.0101981801
11692.513,0.0101973566
11712.108,0.0101958906
11731.769,0.0101943959
11751.496,0.0101940913
11771.29,0.0101946118
11791.15,0.0101947953
11811.077,0.010194806
11831.072,0.0101953601
11851.134,0.010196185
11871.265,0.0101964651
11891.464,0.0101966559
11911.731,0.0101977638
11932.068,0.0101991605
11952.475,0.0101991099
11972.951,0.0101981094
11993.497,0.0101982496
12014.114,0.0101996389
12034.802,0.0102004624
12055.562,0.010201066
12076.393,0.0102026014
12097.296,0.0102031299
12118.271,0.0102002642
12139.32,0.0101964672
12160.441,0.0101950193
12181.636,0.010194433
12202.905,0.0101925528
12224.249,0.0101918351
12245.667,0.0101935932
12267.16,0.010194036
12288.729,0.0101912611
12310.373,0.010188859
12332.094,0.0101881991
12353.892,0.0101859651
12375.767,0.0101820168
12397.719,0.0101800896
12419.75,0.0101796034
12441.859,0.0101768367
12464.046,0.0101734097
12486.313,0.0101736423
12508.659,0.0101758962
12531.086,0.0101758506
12553.593,0.010174151
12576.18,0.0101733987
12598.85,0.0101724723
12621.601,0.0101701959
12644.434,0.0101689491
12667.35,0.0101699178
12690.349,0.0101699404
12713.432,0.0101675468
12736.599,0.0101656625
12759.85,0.0101660922
12783.187,0.0101668226
12806.608,0.0101668598
12830.116,0.0101678179
12853.71,0.0101698491
12877.391,0.0101708476
12901.159,0.0101706143
12925.016,0.0101711213
12948.96,0.010172766
12972.993,0.0101742376
12997.116,0.0101760262
13021.329,0.010179478
13045.631,0.0101835284
13070.025,0.010186085
13094.51,0.0101876367
13119.087,0.0101895109
13143.756,0.0101910167
13168.518,0.0101917526
13193.373,0.0101937178
13218.322,0.0101972615
13243.366,0.0101997879
13268.505,0.0102006807
13293.74,0.0102025878
13319.07,0.0102056988
13344.497,0.0102078012
13370.021,0.0102096268
13395.644,0.0102128355
13421.364,0.0102143303
13447.183,0.0102113647
13473.102,0.010207649
13499.121,0.0102067328
13525.24,0.0102055887
13551.461,0.0102026425
13577.783,0.0102015188
13604.208,0.0102019763
13630.736,0.0101987605
13657.367,0.0101934746
13684.103,0.0101921632
13710.943,0.0101920008
13737.889,0.0101857212
13764.941,0.0101769263
13792.099,0.0101728631
13819.365,0.0101704851
13846.739,0.0101652683
13874.221,0.0101626067
13901.813,0.0101650452
13929.515,0.0101647556
13957.327,0.0101592857
13985.25,0.0101570177
14013.285,0.010158563
14041.433,0.0101554415
14069.694,0.0101491772
14098.068,0.0101486197
14126.558,0.0101500622
14155.163,0.0101448135
14183.883,0.0101376333
14212.721,0.0101358092
14241.676,0.0101328301
14270.749,0.0101241388
14299.94,0.0101190982
14329.252,0.0101216984
14358.684,0.0101212831
14388.237,0.0101147015
14417.911,0.0101104897
14447.709,0.0101082307
14477.629,0.0100998912
14507.674,0.0100910425
14537.844,0.0100909083
14568.139,0.0100926402
14598.561,0.0100869246
14629.109,0.010081149
14659.786,0.0100805019
14690.592,0.0100754571
14721.528,0.0100628154
14752.594,0.0100546556
14783.791,0.0100509344
14815.121,0.010037843
14846.583,0.0100126378
14878.179,0.99843484
14909.91,0.99531016
14941.777,0.99238035
14973.78,0.99146979
15005.92,0.99298864
15038.198,0.9940652
15070.616,0.99300215
15103.173,0.99068973
15135.871,0.98826284
15168.712,0.98489462
15201.695,0.9808144
15234.821,0.97631796
15268.092,0.97138197
15301.509,0.96518951
15335.072,0.9590629
15368.783,0.9524474
15402.642,0.94493747
15436.651,0.93518655
15470.81,0.92594199
15505.12,0.91593049
15539.583,0.90585656
15574.199,0.89363372
15608.97,0.88161396
15643.896,0.86567457
15678.979,0.84978614
15714.22,0.83218631
15749.619,0.81833113
15785.178,0.80307393
15820.897,0.78750399
15856.779,0.77202005
15892.824,0.76487822
15929.033,0.75591749
15965.407,0.73892817
