Database of Origin,University of Winnipeg Spectrophotometer Facility
Sample Description,"Carbonates and Oxolates -  D&P 102F Reflectance spectra december 2006 ""for Montreal"""
Date Added,2018-08-06 21:13:19.560691

Data ID,FTIR_CARB_40_1      
Sample ID,crb208m
Mineral Name,Hydromagnesite
Locality,San Benito Mountains/ San Benito County/ California/ USA
Grain Size,<45 um
Viewing Geometry,i=30/ e=0?
Resolution,~1.5 cm-1
Formula,Mg5(CO3)4(OH)2*4(H2O)
Composition,XRD shows almost total magnesite/ no hydromagnesite shows up.

Wavelength
2.00056,0.010553622
2.001142,0.0105545537
2.001725,0.0105557358
2.002307,0.0105566282
2.002891,0.0105568442
2.003474,0.0105558364
2.004058,0.0105529943
2.004643,0.0105479862
2.005227,0.0105410901
2.005812,0.0105334592
2.006397,0.0105268287
2.006983,0.0105225057
2.007569,0.0105203714
2.008155,0.0105190111
2.008742,0.010517153
2.009329,0.0105147108
2.009916,0.0105123278
2.010504,0.0105101056
2.011092,0.010507177
2.01168,0.0105028288
2.012269,0.0104975883
2.012858,0.0104931569
2.013447,0.0104910415
2.014037,0.0104911355
2.014627,0.0104915286
2.015217,0.0104898805
2.015808,0.0104855498
2.016399,0.0104803495
2.01699,0.0104767942
2.017582,0.0104754423
2.018174,0.0104740412
2.018766,0.0104697109
2.019359,0.0104619768
2.019952,0.0104536061
2.020546,0.0104482959
2.021139,0.0104477378
2.021733,0.0104506016
2.022328,0.010453869
2.022923,0.0104549819
2.023518,0.0104529827
2.024113,0.0104481291
2.024709,0.0104409204
2.025305,0.0104318805
2.025902,0.010422452
2.026499,0.0104155294
2.027096,0.0104138731
2.027693,0.0104173594
2.028291,0.0104222023
2.02889,0.0104235201
2.029488,0.010419502
2.030087,0.0104129718
2.030686,0.0104087625
2.031286,0.0104092943
2.031886,0.0104126286
2.032486,0.010414477
2.033087,0.0104121456
2.033688,0.0104069339
2.034289,0.010402985
2.034891,0.0104035683
2.035493,0.01040829
2.036096,0.0104136061
2.036698,0.0104155928
2.037302,0.0104128327
2.037905,0.0104069649
2.038509,0.0104008216
2.039113,0.0103963313
2.039718,0.0103939256
2.040322,0.0103931881
2.040928,0.0103933637
2.041533,0.0103934612
2.042139,0.0103924149
2.042746,0.0103895745
2.043352,0.0103853159
2.043959,0.0103809142
2.044567,0.0103778859
2.045174,0.0103770633
2.045782,0.0103782128
2.046391,0.0103801245
2.047,0.010381007
2.047609,0.0103794401
2.048218,0.010375575
2.048828,0.0103716805
2.049438,0.0103708368
2.050049,0.0103743955
2.05066,0.0103803361
2.051271,0.0103845763
2.051883,0.0103845503
2.052495,0.0103814956
2.053107,0.0103789202
2.05372,0.0103789031
2.054333,0.0103801
2.054947,0.0103796986
2.05556,0.0103768315
2.056175,0.0103735232
2.056789,0.0103722932
2.057404,0.0103734671
2.058019,0.0103751891
2.058635,0.0103758569
2.059251,0.0103757316
2.059867,0.0103763833
2.060484,0.0103788902
2.061101,0.0103829305
2.061718,0.0103870634
2.062336,0.0103894064
2.062954,0.0103884478
2.063573,0.0103838941
2.064192,0.0103772165
2.064811,0.0103712394
2.065431,0.0103686266
2.066051,0.0103703669
2.066671,0.0103754798
2.067292,0.0103818
2.067913,0.0103868294
2.068534,0.0103884011
2.069156,0.0103859801
2.069778,0.0103815469
2.070401,0.0103786384
2.071024,0.0103795141
2.071647,0.010383186
2.072271,0.010386419
2.072895,0.0103868291
2.073519,0.0103850146
2.074144,0.0103835345
2.074769,0.0103843098
2.075395,0.0103872603
2.07602,0.0103910427
2.076647,0.0103942937
2.077273,0.0103960055
2.0779,0.0103953652
2.078528,0.0103918351
2.079155,0.0103859899
2.079784,0.0103800877
2.080412,0.0103768858
2.081041,0.0103774404
2.08167,0.0103802494
2.0823,0.010382681
2.08293,0.0103832099
2.08356,0.0103821767
2.084191,0.0103810458
2.084822,0.0103812933
2.085454,0.0103838823
2.086085,0.0103890099
2.086718,0.010395739
2.08735,0.0104018757
2.087983,0.0104050518
2.088617,0.0104042865
2.089251,0.0104007231
2.089885,0.0103968718
2.090519,0.0103949968
2.091154,0.0103959299
2.091789,0.0103989183
2.092425,0.0104021653
2.093061,0.0104042479
2.093697,0.0104056271
2.094334,0.010408351
2.094971,0.0104137101
2.095609,0.0104205943
2.096247,0.0104265686
2.096885,0.0104306895
2.097524,0.0104343746
2.098163,0.0104395518
2.098803,0.0104467248
2.099443,0.0104555265
2.100083,0.0104662715
2.100723,0.0104798766
2.101364,0.0104962384
2.102006,0.0105137055
2.102648,0.0105304486
2.10329,0.0105457776
2.103932,0.0105598192
2.104575,0.01057282
2.105219,0.0105853225
2.105862,0.0105987567
2.106506,0.0106151427
2.107151,0.0106353236
2.107796,0.0106577461
2.108441,0.0106793714
2.109087,0.0106976714
2.109733,0.0107117763
2.110379,0.0107222127
2.111026,0.0107300255
2.111673,0.0107362737
2.112321,0.0107420141
2.112969,0.0107482601
2.113617,0.010755548
2.114266,0.0107636711
2.114915,0.0107717374
2.115565,0.0107784433
2.116215,0.0107825761
2.116865,0.0107836223
2.117516,0.0107820772
2.118167,0.0107789043
2.118819,0.0107746
2.119471,0.0107690103
2.120123,0.0107621808
2.120776,0.0107550245
2.121429,0.0107486057
2.122082,0.0107427534
2.122736,0.0107358862
2.123391,0.0107267098
2.124045,0.0107156459
2.1247,0.0107038091
2.125356,0.0106908766
2.126012,0.0106747509
2.126668,0.0106537452
2.127325,0.0106292763
2.127982,0.0106061953
2.12864,0.0105909303
2.129297,0.0105890244
2.129956,0.0106024973
2.130614,0.0106275499
2.131274,0.0106546923
2.131933,0.0106735555
2.132593,0.0106799988
2.133253,0.0106792598
2.133914,0.0106807346
2.134575,0.0106894304
2.135237,0.0107023242
2.135899,0.0107125487
2.136561,0.010716079
2.137224,0.0107144709
2.137887,0.0107120627
2.13855,0.0107119259
2.139214,0.010714333
2.139879,0.0107176935
2.140544,0.0107202976
2.141209,0.0107216066
2.141874,0.010722421
2.14254,0.010723952
2.143207,0.0107269021
2.143873,0.0107312179
2.144541,0.0107363033
2.145208,0.0107406447
2.145876,0.0107415807
2.146545,0.0107366384
2.147214,0.0107258721
2.147883,0.0107132074
2.148553,0.0107046154
2.149223,0.0107036356
2.149893,0.0107081683
2.150564,0.0107117298
2.151235,0.0107083598
2.151907,0.0106974641
2.152579,0.0106842366
2.153252,0.0106750563
2.153925,0.010671958
2.154598,0.0106712436
2.155272,0.0106669458
2.155946,0.0106559014
2.156621,0.0106400303
2.157296,0.0106240576
2.157972,0.0106115918
2.158647,0.0106031969
2.159324,0.0105973683
2.160001,0.0105926611
2.160678,0.0105887502
2.161355,0.0105856974
2.162033,0.0105826742
2.162712,0.01057813
2.16339,0.0105712624
2.16407,0.0105631166
2.164749,0.0105558676
2.165429,0.0105506706
2.16611,0.0105465118
2.166791,0.0105412569
2.167472,0.0105340036
2.168154,0.0105262285
2.168836,0.0105207878
2.169519,0.0105191265
2.170202,0.0105195949
2.170885,0.010518824
2.171569,0.0105146087
2.172254,0.0105073737
2.172938,0.0104993928
2.173624,0.0104934931
2.174309,0.0104918906
2.174995,0.0104953764
2.175682,0.0105027856
2.176368,0.0105110069
2.177056,0.0105162829
2.177743,0.0105163679
2.178432,0.010511464
2.17912,0.0105031004
2.179809,0.0104929713
2.180499,0.0104831436
2.181189,0.0104762273
2.181879,0.0104739491
2.18257,0.0104752502
2.183261,0.0104766957
2.183952,0.0104754856
2.184644,0.0104721341
2.185337,0.0104694267
2.18603,0.0104688504
2.186723,0.010468731
2.187417,0.0104662809
2.188111,0.0104612098
2.188806,0.0104569049
2.189501,0.0104577271
2.190196,0.0104649421
2.190892,0.0104752101
2.191589,0.0104827644
2.192285,0.0104835309
2.192983,0.0104777629
2.19368,0.0104690412
2.194379,0.0104611169
2.195077,0.0104554263
2.195776,0.0104512332
2.196476,0.0104476113
2.197175,0.0104450322
2.197876,0.0104448094
2.198577,0.0104469768
2.199278,0.0104490497
2.199979,0.0104476705
2.200682,0.0104417136
2.201384,0.0104334107
2.202087,0.0104261598
2.20279,0.0104212811
2.203494,0.0104172295
2.204199,0.01041184
2.204903,0.0104047567
2.205609,0.010397735
2.206314,0.0103926947
2.20702,0.0103896178
2.207727,0.0103862741
2.208434,0.0103800338
2.209141,0.010370332
2.209849,0.0103594174
2.210557,0.010350498
2.211266,0.0103447973
2.211975,0.0103402341
2.212685,0.0103332714
2.213395,0.0103219718
2.214106,0.0103076138
2.214817,0.0102934418
2.215528,0.0102823068
2.21624,0.0102752059
2.216952,0.0102711828
2.217665,0.0102679402
2.218379,0.0102630105
2.219092,0.0102549571
2.219806,0.0102439912
2.220521,0.010231713
2.221236,0.0102205361
2.221952,0.0102126666
2.222668,0.0102085811
2.223384,0.0102057294
2.224101,0.0101994808
2.224818,0.0101865956
2.225536,0.0101685093
2.226254,0.010150934
2.226973,0.0101392427
2.227692,0.0101340111
2.228412,0.0101309978
2.229132,0.0101252483
2.229853,0.0101149821
2.230574,0.0101021208
2.231295,0.0100894615
2.232017,0.0100777499
2.23274,0.0100654305
2.233462,0.0100506585
2.234186,0.0100332646
2.23491,0.0100148052
2.235634,0.9997264
2.236359,0.99820612
2.237084,0.99699293
2.237809,0.99607445
2.238536,0.99530233
2.239262,0.99442887
2.239989,0.9932685
2.240717,0.99186727
2.241445,0.99047697
2.242173,0.9893496
2.242902,0.98854815
2.243631,0.98792635
2.244361,0.98725816
2.245092,0.98639113
2.245822,0.98529654
2.246554,0.98407083
2.247285,0.9828738
2.248017,0.98181493
2.24875,0.98085622
2.249483,0.97984982
2.250217,0.97866383
2.250951,0.97727277
2.251686,0.97573825
2.252421,0.97414068
2.253156,0.97256712
2.253892,0.97114946
2.254628,0.97003417
2.255365,0.96927612
2.256103,0.96877488
2.256841,0.9683234
2.257579,0.9677362
2.258318,0.96694862
2.259057,0.96603218
2.259797,0.96512256
2.260537,0.96431847
2.261278,0.96361094
2.262019,0.96291024
2.262761,0.96214931
2.263503,0.96134631
2.264246,0.96054495
2.264989,0.95973659
2.265732,0.95887135
2.266477,0.95795551
2.267221,0.9570941
2.267966,0.95639479
2.268712,0.95582679
2.269458,0.95524958
2.270204,0.95456936
2.270951,0.95384191
2.271699,0.95318839
2.272447,0.95261447
2.273195,0.95195901
2.273944,0.95104699
2.274694,0.94989063
2.275444,0.94873639
2.276194,0.94787735
2.276945,0.94738887
2.277696,0.94704456
2.278448,0.94649662
2.279201,0.94557252
2.279954,0.94443191
2.280707,0.94345747
2.281461,0.94296195
2.282215,0.94293576
2.28297,0.94303356
2.283725,0.94281608
2.284481,0.94204236
2.285237,0.94080965
2.285994,0.93945079
2.286752,0.9382876
2.287509,0.93744038
2.288268,0.93682015
2.289026,0.93625644
2.289786,0.93559475
2.290545,0.93475356
2.291306,0.93373946
2.292067,0.9326204
2.292828,0.93148292
2.29359,0.93042285
2.294352,0.92954563
2.295115,0.92891561
2.295878,0.92850157
2.296642,0.92815395
2.297406,0.92766284
2.298171,0.92687902
2.298936,0.92581302
2.299702,0.92465077
2.300468,0.92366557
2.301235,0.92302353
2.302002,0.92263778
2.30277,0.92225609
2.303539,0.92172931
2.304307,0.92117501
2.305077,0.92084518
2.305847,0.92083788
2.306617,0.92099514
2.307388,0.92110417
2.308159,0.9211491
2.308931,0.92129258
2.309703,0.92162992
2.310476,0.92202256
2.31125,0.9222243
2.312024,0.922161
2.312798,0.92203294
2.313573,0.9221121
2.314348,0.92248404
2.315124,0.92298622
2.315901,0.92340099
2.316678,0.92366575
2.317455,0.92389751
2.318234,0.92424702
2.319012,0.92475304
2.319791,0.92533049
2.320571,0.92588398
2.321351,0.92639541
2.322131,0.92689055
2.322913,0.92735207
2.323694,0.92772962
2.324476,0.92802575
2.325259,0.92834354
2.326042,0.92881813
2.326826,0.92950755
2.32761,0.93036646
2.328395,0.93129105
2.32918,0.93215258
2.329966,0.93281859
2.330753,0.9332243
2.33154,0.93346515
2.332327,0.93374215
2.333115,0.93415984
2.333903,0.93459395
2.334692,0.93482349
2.335482,0.93479028
2.336272,0.93466498
2.337062,0.93462969
2.337854,0.93465819
2.338645,0.93458258
2.339437,0.93433699
2.34023,0.93406277
2.341023,0.93393958
2.341817,0.93396467
2.342611,0.93395003
2.343406,0.93373202
2.344201,0.93333595
2.344997,0.93292762
2.345794,0.93263203
2.346591,0.93240729
2.347388,0.93209815
2.348186,0.93160311
2.348985,0.93096851
2.349784,0.93032481
2.350583,0.92972999
2.351384,0.92908435
2.352184,0.92822038
2.352986,0.92708783
2.353787,0.92585363
2.35459,0.9247782
2.355393,0.92399157
2.356196,0.92340401
2.357,0.92284759
2.357804,0.92228754
2.358609,0.92184261
2.359415,0.92159248
2.360221,0.92138451
2.361028,0.92086216
2.361835,0.91973205
2.362643,0.91803974
2.363451,0.91621386
2.36426,0.91484661
2.365069,0.91431631
2.365879,0.91450274
2.36669,0.91484328
2.367501,0.91476383
2.368312,0.91411648
2.369125,0.91320299
2.369937,0.91237507
2.370751,0.91167003
2.371564,0.91087815
2.372379,0.90990425
2.373194,0.90892685
2.374009,0.90816418
2.374825,0.90755655
2.375642,0.90680063
2.376459,0.90568933
2.377276,0.90436722
2.378095,0.90319491
2.378913,0.90240425
2.379733,0.9019022
2.380553,0.90139516
2.381373,0.90068689
2.382194,0.89983574
2.383016,0.89903582
2.383838,0.89836085
2.384661,0.89767362
2.385484,0.89679394
2.386308,0.89572088
2.387132,0.89465123
2.387957,0.89379798
2.388783,0.89319734
2.389609,0.89269114
2.390435,0.8920639
2.391263,0.89117687
2.39209,0.89003972
2.392919,0.88879944
2.393748,0.88766149
2.394577,0.88676379
2.395407,0.88609552
2.396238,0.88550757
2.397069,0.88481058
2.397901,0.8838898
2.398733,0.88276302
2.399566,0.88154201
2.400399,0.88034439
2.401233,0.87923469
2.402068,0.87823571
2.402903,0.87736433
2.403739,0.87661933
2.404575,0.87593887
2.405412,0.87521463
2.40625,0.87439574
2.407088,0.87356517
2.407926,0.87285791
2.408766,0.87227968
2.409606,0.87164946
2.410446,0.87076701
2.411287,0.86964024
2.412128,0.86850477
2.412971,0.8675749
2.413813,0.86682517
2.414657,0.86602978
2.4155,0.86498127
2.416345,0.8636648
2.41719,0.86224081
2.418036,0.86090754
2.418882,0.85976601
2.419729,0.85876685
2.420576,0.85774559
2.421424,0.85652701
2.422272,0.8550731
2.423122,0.85355738
2.423971,0.85223753
2.424822,0.85122006
2.425673,0.85036242
2.426524,0.84941201
2.427376,0.84823119
2.428229,0.84689099
2.429082,0.8455757
2.429936,0.84443362
2.430791,0.84350084
2.431646,0.84269378
2.432501,0.84181956
2.433358,0.84063988
2.434214,0.83899831
2.435072,0.8369742
2.43593,0.83489566
2.436789,0.83316091
2.437648,0.83197589
2.438508,0.83122993
2.439368,0.83059367
2.440229,0.82976233
2.441091,0.82865867
2.441953,0.82743165
2.442816,0.82626673
2.443679,0.82519904
2.444543,0.82410591
2.445408,0.82287925
2.446273,0.82157466
2.447139,0.82037503
2.448006,0.81939474
2.448873,0.81854087
2.44974,0.8175896
2.450609,0.81639246
2.451478,0.81500847
2.452347,0.81363908
2.453217,0.81247052
2.454088,0.81158495
2.454959,0.81095208
2.455831,0.81045872
2.456704,0.80995675
2.457577,0.80934343
2.458451,0.8086036
2.459325,0.80779155
2.4602,0.80696245
2.461076,0.80612252
2.461952,0.80524341
2.462829,0.80432215
2.463707,0.80343064
2.464585,0.80267156
2.465464,0.80206725
2.466343,0.80150295
2.467223,0.80083658
2.468104,0.80007171
2.468985,0.79938819
2.469867,0.79894076
2.470749,0.79862782
2.471632,0.79814289
2.472516,0.79728534
2.4734,0.79619587
2.474285,0.79521561
2.475171,0.79451644
2.476057,0.79394947
2.476944,0.79325352
2.477832,0.79235304
2.47872,0.79139551
2.479608,0.7905525
2.480498,0.78983053
2.481388,0.78909488
2.482278,0.78825064
2.48317,0.787379
2.484062,0.78670142
2.484954,0.7864034
2.485847,0.78645556
2.486741,0.78658344
2.487636,0.7864388
2.488531,0.78586533
2.489427,0.78503421
2.490323,0.78428374
2.49122,0.7837899
2.492118,0.78341055
2.493016,0.78286606
2.493915,0.78202179
2.494814,0.78097265
2.495715,0.77992487
2.496615,0.77903896
2.497517,0.77838414
2.498419,0.77799218
2.499322,0.77789261
2.500225,0.77808804
2.501129,0.77852282
2.502034,0.77910824
2.502939,0.77975409
2.503845,0.78034885
2.504752,0.78075387
2.505659,0.78090817
2.506567,0.78098337
2.507476,0.7813281
2.508385,0.78218252
2.509295,0.78344394
2.510206,0.78481607
2.511117,0.78618801
2.512029,0.7877581
2.512942,0.78968623
2.513855,0.79171931
2.514769,0.79333295
2.515683,0.79427506
2.516598,0.79483215
2.517514,0.79550321
2.518431,0.79656559
2.519348,0.79804468
2.520266,0.79993966
2.521184,0.80224981
2.522103,0.8047732
2.523023,0.80708062
2.523944,0.80882779
2.524865,0.81003529
2.525787,0.81104068
2.526709,0.81232723
2.527632,0.81445625
2.528556,0.81790459
2.52948,0.82263218
2.530406,0.82775678
2.531331,0.83200295
2.532258,0.83478009
2.533185,0.83665331
2.534113,0.8384332
2.535041,0.83994198
2.535971,0.84004178
2.5369,0.83812485
2.537831,0.83541877
2.538762,0.83445857
2.539694,0.83717341
2.540627,0.84325945
2.54156,0.84994827
2.542494,0.85379235
2.543428,0.85363519
2.544364,0.85156793
2.5453,0.85042989
2.546236,0.85102318
2.547174,0.85214814
2.548112,0.85293528
2.54905,0.85432237
2.54999,0.85754599
2.55093,0.86161116
2.55187,0.86321736
2.552812,0.859876
2.553754,0.85258105
2.554697,0.84466353
2.55564,0.83918654
2.556585,0.83826125
2.557529,0.84361328
2.558475,0.85643918
2.559421,0.87613123
2.560368,0.89876697
2.561316,0.91693512
2.562264,0.92264684
2.563213,0.91289117
2.564163,0.89296104
2.565113,0.87300251
2.566065,0.86118542
2.567016,0.85990076
2.567969,0.86580291
2.568922,0.87262756
2.569876,0.87642123
2.570831,0.8784758
2.571786,0.88190075
2.572742,0.88687056
2.573699,0.89043018
2.574656,0.89001199
2.575615,0.8856741
2.576573,0.87888066
2.577533,0.87126013
2.578493,0.8653298
2.579454,0.86467875
2.580416,0.871931
2.581378,0.88595507
2.582342,0.90064556
2.583305,0.90815756
2.58427,0.90602067
2.585235,0.89915314
2.586201,0.89320596
2.587168,0.88845685
2.588135,0.88085854
2.589103,0.86915391
2.590072,0.86010787
2.591042,0.86511191
2.592012,0.89382292
2.592983,0.94753021
2.593955,0.010036619
2.594927,0.0101306623
2.5959,0.96396587
2.596874,0.90239464
2.597849,0.86117615
2.598824,0.84400639
2.5998,0.84408283
2.600777,0.85394864
2.601755,0.86907367
2.602733,0.88780926
2.603712,0.90739628
2.604692,0.92056009
2.605672,0.9195078
2.606653,0.90481926
2.607635,0.8854503
2.608618,0.86951736
2.609601,0.85908905
2.610585,0.85205859
2.61157,0.84676714
2.612556,0.84493623
2.613542,0.85014926
2.614529,0.86367696
2.615517,0.88147998
2.616505,0.89573692
2.617495,0.9014422
2.618485,0.89956816
2.619475,0.89160427
2.620467,0.87640827
2.621459,0.85572264
2.622452,0.8373975
2.623446,0.82940019
2.62444,0.83380407
2.625435,0.84607911
2.626431,0.85879179
2.627428,0.86824026
2.628426,0.876119
2.629424,0.88300495
2.630423,0.88415526
2.631423,0.87496468
2.632423,0.85811364
2.633424,0.84053994
2.634426,0.82628043
2.635429,0.8154204
2.636432,0.80726749
2.637437,0.80225975
2.638442,0.80095123
2.639447,0.8024466
2.640454,0.80468498
2.641461,0.80636586
2.642469,0.80804677
2.643478,0.81074821
2.644488,0.8136661
2.645498,0.81390558
2.646509,0.80938774
2.647521,0.80202804
2.648534,0.79677035
2.649547,0.79755038
2.650561,0.80453409
2.651576,0.81391664
2.652592,0.82012767
2.653609,0.8197554
2.654626,0.8138987
2.655644,0.80676677
2.656663,0.80266725
2.657682,0.80362686
2.658703,0.80806232
2.659724,0.81174644
2.660746,0.81265166
2.661768,0.81536428
2.662792,0.8280889
2.663816,0.85480302
2.664841,0.88821437
2.665867,0.91094659
2.666894,0.9149445
2.667921,0.91228226
2.668949,0.91405596
2.669978,0.91307547
2.671008,0.89402456
2.672038,0.86010701
2.67307,0.83217847
2.674102,0.82485726
2.675135,0.83936656
2.676168,0.86497174
2.677203,0.88122396
2.678238,0.87342961
2.679274,0.84814887
2.680311,0.82173772
2.681349,0.80397363
2.682387,0.79619287
2.683426,0.79490543
2.684467,0.79489383
2.685507,0.79200919
2.686549,0.78495351
2.687591,0.77496449
2.688635,0.76482341
2.689679,0.75842757
2.690724,0.75991015
2.691769,0.77151076
2.692816,0.79033207
2.693863,0.80571095
2.694911,0.80438887
2.69596,0.78479679
2.69701,0.75919222
2.69806,0.73960311
2.699112,0.73000567
2.700164,0.72764978
2.701217,0.7263914
2.70227,0.72108141
2.703325,0.71133133
2.70438,0.70095844
2.705437,0.69493266
2.706494,0.69765872
2.707552,0.71209199
2.70861,0.73725735
2.70967,0.76371718
2.71073,0.77429816
2.711791,0.76051941
2.712853,0.73421763
2.713916,0.71219793
2.71498,0.70254639
2.716044,0.7067089
2.717109,0.72453804
2.718175,0.75509794
2.719242,0.79272139
2.72031,0.82376208
2.721379,0.83547424
2.722448,0.82984617
2.723518,0.81676346
2.724589,0.798771
2.725661,0.7724279
2.726734,0.73967094
2.727808,0.70907548
2.728882,0.6872334
2.729958,0.67523719
2.731034,0.67137173
2.732111,0.67360146
2.733188,0.67924736
2.734267,0.6841388
2.735347,0.68561107
2.736427,0.68741351
2.737508,0.69781706
2.73859,0.72055707
2.739673,0.74462097
2.740757,0.74445806
2.741841,0.70979215
2.742927,0.66241302
2.744013,0.62423289
2.7451,0.6004117
2.746188,0.58741679
2.747277,0.58049268
2.748367,0.57624807
2.749457,0.57307894
2.750549,0.57154958
2.751641,0.57481332
2.752734,0.58719644
2.753828,0.60972735
2.754923,0.6329212
2.756019,0.63632432
2.757115,0.61197299
2.758213,0.57870697
2.759311,0.55660513
2.76041,0.55159028
2.76151,0.55952923
2.762611,0.57040519
2.763713,0.57406695
2.764816,0.56885244
2.765919,0.56118274
2.767024,0.55714277
2.768129,0.55818975
2.769235,0.56162912
2.770342,0.56247381
2.77145,0.55672801
2.772559,0.54494705
2.773669,0.53184349
2.774779,0.52206259
2.775891,0.51725482
2.777003,0.51636183
2.778116,0.51744359
2.77923,0.51901686
2.780345,0.51987785
2.781461,0.51879496
2.782578,0.51595642
2.783696,0.51435744
2.784814,0.51782144
2.785934,0.52666853
2.787054,0.53480657
2.788175,0.53310837
2.789297,0.51960252
2.79042,0.50201548
2.791544,0.48821946
2.792669,0.48039914
2.793795,0.47669773
2.794922,0.47445482
2.796049,0.47211943
2.797178,0.46959639
2.798307,0.46815744
2.799437,0.47026858
2.800568,0.47829405
2.8017,0.49170878
2.802833,0.50433201
2.803967,0.50653191
2.805102,0.49511566
2.806238,0.47738838
2.807374,0.4618786
2.808512,0.45145496
2.80965,0.44479926
2.810789,0.4401264
2.81193,0.43699057
2.813071,0.43549352
2.814213,0.43501115
2.815356,0.43454738
2.8165,0.4340891
2.817645,0.43463379
2.818791,0.43643073
2.819937,0.43765222
2.821085,0.43556617
2.822233,0.42950945
2.823383,0.42190294
2.824533,0.41585745
2.825685,0.41265254
2.826837,0.41139012
2.82799,0.41032236
2.829144,0.40855347
2.830299,0.40666266
2.831455,0.40580198
2.832612,0.40646991
2.83377,0.40810138
2.834929,0.40950334
2.836089,0.40954065
2.83725,0.40755236
2.838411,0.4034899
2.839574,0.39795752
2.840737,0.39203181
2.841902,0.38674783
2.843067,0.38264982
2.844234,0.37981874
2.845401,0.3781756
2.846569,0.3775308
2.847739,0.37730367
2.848909,0.37654213
2.85008,0.37466303
2.851252,0.37213495
2.852425,0.36998188
2.853599,0.36853226
2.854774,0.3669084
2.85595,0.36395706
2.857127,0.35961834
2.858305,0.35498658
2.859484,0.35108399
2.860664,0.34804525
2.861844,0.34546124
2.863026,0.34311902
2.864209,0.341162
2.865392,0.33966413
2.866577,0.33838898
2.867763,0.33708332
2.868949,0.33578369
2.870137,0.33461214
2.871325,0.33334276
2.872515,0.33142803
2.873705,0.32857062
2.874897,0.32513957
2.876089,0.32185518
2.877283,0.31912755
2.878477,0.3168109
2.879673,0.31453059
2.880869,0.31211695
2.882066,0.30967131
2.883265,0.30734515
2.884464,0.30519707
2.885664,0.30322985
2.886866,0.3014238
2.888068,0.29967122
2.889271,0.29774793
2.890476,0.29543935
2.891681,0.29271517
2.892887,0.28974149
2.894095,0.28674055
2.895303,0.2839154
2.896512,0.2814937
2.897723,0.27970496
2.898934,0.27858917
2.900146,0.27782071
2.90136,0.27680723
2.902574,0.27506446
2.903789,0.27254274
2.905006,0.26957933
2.906223,0.26657856
2.907441,0.26376958
2.908661,0.26118039
2.909881,0.2587306
2.911103,0.25633108
2.912325,0.25394957
2.913549,0.2516154
2.914773,0.24935269
2.915999,0.24712136
2.917225,0.24486996
2.918453,0.24265763
2.919681,0.24065595
2.920911,0.23895987
2.922142,0.23739905
2.923373,0.23560439
2.924606,0.23332649
2.92584,0.23067234
2.927075,0.22799131
2.92831,0.22556399
2.929547,0.22344039
2.930785,0.22153212
2.932024,0.21976331
2.933264,0.21809422
2.934505,0.21646192
2.935747,0.21477627
2.93699,0.21299204
2.938234,0.21114595
2.939479,0.20928838
2.940726,0.20740427
2.941973,0.20545577
2.943221,0.2035138
2.944471,0.20178206
2.945721,0.20041011
2.946973,0.19927275
2.948225,0.19799836
2.949479,0.1962726
2.950733,0.1941284
2.951989,0.19192604
2.953246,0.19002454
2.954504,0.18846303
2.955763,0.18697132
2.957023,0.18527547
2.958284,0.18336749
2.959546,0.18148076
2.960809,0.17985377
2.962073,0.17854664
2.963339,0.17746225
2.964605,0.17648096
2.965873,0.17553532
2.967141,0.17458119
2.968411,0.17357295
2.969681,0.17251238
2.970953,0.17149587
2.972226,0.17065665
2.9735,0.17002606
2.974775,0.16947719
2.976051,0.16883436
2.977328,0.16802914
2.978607,0.16714075
2.979886,0.16629522
2.981167,0.16554864
2.982448,0.16488304
2.983731,0.16429115
2.985015,0.16382838
2.9863,0.1635762
2.987586,0.16355721
2.988873,0.16370018
2.990161,0.16387687
2.99145,0.16395802
2.99274,0.16387334
2.994032,0.16366554
2.995324,0.16349102
2.996618,0.16352877
2.997913,0.16384539
2.999209,0.16434143
3.000506,0.16484198
3.001804,0.16523477
3.003103,0.16551759
3.004404,0.16574
3.005705,0.16594762
3.007008,0.16618707
3.008312,0.16651916
3.009616,0.16698365
3.010922,0.16754659
3.01223,0.16810481
3.013538,0.16856398
3.014847,0.16891729
3.016158,0.16925731
3.017469,0.16971287
3.018782,0.1703564
3.020096,0.17115049
3.021411,0.17197123
3.022727,0.17268448
3.024044,0.17322813
3.025363,0.17365064
3.026683,0.1740877
3.028003,0.17469378
3.029325,0.17554859
3.030648,0.17657195
3.031972,0.17752035
3.033298,0.17811314
3.034624,0.17822107
3.035952,0.17796673
3.037281,0.1776357
3.038611,0.17747411
3.039942,0.17755798
3.041274,0.17783096
3.042607,0.17820126
3.043942,0.17856774
3.045278,0.17881255
3.046615,0.17885952
3.047953,0.17875242
3.049292,0.17863402
3.050632,0.17861505
3.051974,0.17866384
3.053317,0.17864663
3.054661,0.17847148
3.056006,0.17816745
3.057352,0.17782969
3.0587,0.1775312
3.060048,0.17730741
3.061398,0.17718582
3.062749,0.1771736
3.064101,0.17720363
3.065455,0.1771395
3.066809,0.17687924
3.068165,0.17645576
3.069522,0.17600733
3.07088,0.17564441
3.072239,0.17535964
3.0736,0.17507013
3.074962,0.17472744
3.076325,0.17436385
3.077689,0.17404
3.079054,0.17377614
3.080421,0.17354677
3.081788,0.17332677
3.083157,0.17311851
3.084527,0.17291623
3.085899,0.17267394
3.087271,0.1723416
3.088645,0.17193046
3.09002,0.17151905
3.091396,0.17117741
3.092774,0.17089284
3.094153,0.17059756
3.095532,0.17027531
3.096914,0.17000413
3.098296,0.16986375
3.099679,0.16981581
3.101064,0.16971418
3.10245,0.16944343
3.103837,0.16902224
3.105226,0.16856024
3.106616,0.16813763
3.108007,0.16775611
3.109399,0.16739284
3.110792,0.1670582
3.112187,0.16677496
3.113583,0.16652484
3.11498,0.16625028
3.116378,0.16591185
3.117778,0.16552592
3.119179,0.16514234
3.120581,0.16480706
3.121985,0.16455575
3.123389,0.16441222
3.124795,0.1643632
3.126202,0.16433442
3.127611,0.16422375
3.12902,0.16398046
3.130431,0.16365357
3.131844,0.16334846
3.133257,0.16313395
3.134672,0.16300028
3.136088,0.16290192
3.137505,0.16282085
3.138924,0.1627786
3.140344,0.16280324
3.141765,0.16290091
3.143187,0.1630513
3.144611,0.16321903
3.146036,0.16336077
3.147462,0.16343654
3.14889,0.1634337
3.150319,0.16337844
3.151749,0.16330783
3.15318,0.16323812
3.154613,0.16317986
3.156047,0.16317113
3.157482,0.16326109
3.158919,0.16344512
3.160357,0.16363346
3.161796,0.1637163
3.163236,0.16366854
3.164678,0.16356907
3.166121,0.16350954
3.167566,0.16349665
3.169011,0.16345786
3.170458,0.1633271
3.171907,0.16311281
3.173356,0.16289369
3.174807,0.16277226
3.17626,0.16282297
3.177713,0.16303839
3.179168,0.16329346
3.180624,0.16338968
3.182082,0.16318345
3.183541,0.1627019
3.185001,0.16212776
3.186463,0.1616653
3.187926,0.16141389
3.18939,0.16135382
3.190856,0.16141213
3.192323,0.16150581
3.193791,0.16154919
3.19526,0.16147336
3.196731,0.16127534
3.198204,0.16103862
3.199677,0.16087932
3.201152,0.1608536
3.202629,0.16091336
3.204106,0.16096069
3.205585,0.16095147
3.207066,0.16094451
3.208548,0.16105944
3.210031,0.16139298
3.211515,0.1619646
3.213001,0.16270899
3.214488,0.16348492
3.215977,0.16409976
3.217467,0.16438886
3.218958,0.16433896
3.220451,0.16414557
3.221945,0.16409885
3.223441,0.16436416
3.224938,0.16486719
3.226436,0.16540327
3.227936,0.16584991
3.229437,0.16625555
3.230939,0.16673919
3.232443,0.16734323
3.233948,0.16800206
3.235455,0.16862978
3.236963,0.16920689
3.238472,0.16978787
3.239983,0.17044687
3.241495,0.17121905
3.243008,0.17207591
3.244523,0.17294718
3.24604,0.17376621
3.247558,0.17449366
3.249077,0.17510055
3.250598,0.17553429
3.25212,0.17569867
3.253643,0.17546354
3.255168,0.17468809
3.256694,0.17325837
3.258222,0.17114399
3.259751,0.16845801
3.261282,0.16547159
3.262814,0.16255478
3.264347,0.160055
3.265882,0.15817757
3.267418,0.15692196
3.268956,0.15610845
3.270495,0.15548959
3.272036,0.15490906
3.273578,0.15441209
3.275122,0.15421675
3.276667,0.1545432
3.278213,0.15543417
3.279761,0.15672325
3.28131,0.15816599
3.282861,0.15960411
3.284413,0.16101362
3.285967,0.1624206
3.287522,0.16380681
3.289079,0.16512103
3.290637,0.1663664
3.292196,0.16762328
3.293757,0.16894539
3.29532,0.17024401
3.296884,0.17132183
3.298449,0.17204686
3.300016,0.17248625
3.301585,0.17284409
3.303155,0.17326906
3.304726,0.17373437
3.306299,0.17410078
3.307873,0.17427731
3.309449,0.17431674
3.311026,0.17437664
3.312605,0.17460044
3.314185,0.17502724
3.315767,0.17558909
3.317351,0.17618327
3.318936,0.17675234
3.320522,0.17731645
3.32211,0.1779486
3.323699,0.17872451
3.32529,0.17967189
3.326882,0.18073019
3.328476,0.18174513
3.330072,0.18253859
3.331669,0.18303231
3.333267,0.18332588
3.334867,0.18363478
3.336469,0.18413463
3.338072,0.18485489
3.339676,0.18570568
3.341282,0.18658188
3.34289,0.18742889
3.344499,0.18823781
3.34611,0.18901266
3.347722,0.18975159
3.349336,0.19043145
3.350952,0.19100381
3.352569,0.19142584
3.354187,0.19171818
3.355807,0.19198975
3.357429,0.19238049
3.359052,0.19296295
3.360677,0.19369561
3.362303,0.19446199
3.363931,0.19515497
3.36556,0.19573837
3.367191,0.19625255
3.368824,0.1967697
3.370458,0.19732938
3.372093,0.19789882
3.373731,0.1983914
3.37537,0.19873065
3.37701,0.19890295
3.378652,0.19895307
3.380296,0.19893854
3.381941,0.1988947
3.383588,0.19882794
3.385236,0.1987232
3.386886,0.19855146
3.388538,0.19828627
3.390191,0.19793037
3.391846,0.19752034
3.393502,0.19708829
3.39516,0.19660825
3.39682,0.1959917
3.398481,0.19514459
3.400144,0.19402789
3.401809,0.19265227
3.403475,0.19101566
3.405143,0.18906957
3.406812,0.18677363
3.408483,0.18419172
3.410156,0.18151325
3.41183,0.17896849
3.413506,0.17672004
3.415183,0.17484282
3.416862,0.17339065
3.418543,0.17243526
3.420226,0.17201418
3.42191,0.17205651
3.423596,0.17240367
3.425283,0.17292826
3.426972,0.17362645
3.428663,0.17457726
3.430355,0.17581931
3.432049,0.17728387
3.433745,0.17885226
3.435442,0.18046377
3.437141,0.18215615
3.438842,0.18399687
3.440545,0.18597701
3.442249,0.18797641
3.443954,0.18984298
3.445662,0.19152459
3.447371,0.19312982
3.449082,0.19485361
3.450794,0.19682669
3.452509,0.19902614
3.454224,0.20132164
3.455942,0.20359861
3.457661,0.20583792
3.459382,0.20809283
3.461105,0.21040573
3.462829,0.21275347
3.464556,0.21506916
3.466283,0.21731016
3.468013,0.21950583
3.469744,0.2217431
3.471477,0.22411303
3.473212,0.2266795
3.474948,0.22949174
3.476686,0.23260643
3.478426,0.2360802
3.480168,0.23994649
3.481911,0.24421606
3.483656,0.24890303
3.485403,0.25402825
3.487152,0.25956818
3.488902,0.26540161
3.490654,0.27132717
3.492408,0.27714413
3.494164,0.28271385
3.495921,0.28795352
3.49768,0.29279761
3.499441,0.29719418
3.501204,0.30113699
3.502968,0.30467663
3.504734,0.30788568
3.506502,0.31080188
3.508272,0.31340543
3.510043,0.31564013
3.511817,0.31747098
3.513592,0.31893108
3.515368,0.32011886
3.517147,0.32113782
3.518927,0.32202118
3.52071,0.32271881
3.522494,0.32317781
3.52428,0.32346222
3.526067,0.32380377
3.527857,0.32452167
3.529648,0.32585204
3.531441,0.32780717
3.533236,0.33017058
3.535032,0.33262969
3.536831,0.33494026
3.538631,0.33701118
3.540433,0.33887587
3.542237,0.34060648
3.544043,0.34224275
3.545851,0.34378334
3.54766,0.34521776
3.549471,0.34656167
3.551284,0.34785764
3.553099,0.34915378
3.554916,0.35047264
3.556735,0.35180211
3.558555,0.35311226
3.560378,0.35438533
3.562202,0.35563399
3.564028,0.35688584
3.565856,0.35815074
3.567686,0.35940441
3.569518,0.36060336
3.571351,0.36171666
3.573187,0.36274351
3.575024,0.36370752
3.576863,0.36464876
3.578704,0.3656201
3.580547,0.36667062
3.582392,0.36781121
3.584239,0.36898538
3.586088,0.37010026
3.587938,0.37109903
3.589791,0.37201492
3.591645,0.37294293
3.593501,0.37395437
3.595359,0.37503869
3.59722,0.37612611
3.599082,0.37715338
3.600946,0.37810891
3.602811,0.37902461
3.604679,0.37994934
3.606549,0.38093269
3.608421,0.38201286
3.610294,0.38319264
3.61217,0.38441656
3.614047,0.38558598
3.615926,0.38661732
3.617808,0.38750269
3.619691,0.3883161
3.621576,0.38915135
3.623463,0.39004967
3.625353,0.39098037
3.627244,0.39188808
3.629137,0.39275289
3.631032,0.39360306
3.632929,0.39448054
3.634828,0.39539723
3.636729,0.39633415
3.638632,0.39727195
3.640537,0.39821774
3.642444,0.39919025
3.644353,0.40018869
3.646263,0.4011787
3.648176,0.40211936
3.650091,0.40299603
3.652008,0.40382685
3.653927,0.40463749
3.655848,0.40543615
3.657771,0.40621411
3.659696,0.40696243
3.661623,0.40768169
3.663552,0.40837819
3.665483,0.40905468
3.667416,0.40970783
3.669351,0.41032899
3.671288,0.41091428
3.673227,0.41148096
3.675168,0.41207632
3.677111,0.41275344
3.679057,0.41352463
3.681004,0.41433223
3.682953,0.41507548
3.684905,0.41568227
3.686858,0.4161566
3.688814,0.41656149
3.690771,0.41696009
3.692731,0.41737057
3.694693,0.41776784
3.696656,0.41810803
3.698622,0.41834568
3.70059,0.41843718
3.70256,0.41835318
3.704532,0.41809601
3.706507,0.41768632
3.708483,0.41711984
3.710461,0.41633325
3.712442,0.41521307
3.714425,0.41364458
3.716409,0.41155395
3.718396,0.40891251
3.720385,0.40571927
3.722376,0.40198917
3.72437,0.39776431
3.726365,0.39313277
3.728362,0.38822379
3.730362,0.38316756
3.732364,0.37805034
3.734368,0.37290164
3.736374,0.3677347
3.738382,0.36259007
3.740392,0.35753634
3.742405,0.35262579
3.744419,0.34785308
3.746436,0.34316808
3.748455,0.33852396
3.750476,0.33390716
3.752499,0.32932679
3.754525,0.32479189
3.756553,0.32030443
3.758582,0.3158594
3.760614,0.31144371
3.762649,0.30703534
3.764685,0.30262359
3.766724,0.29823619
3.768764,0.29393256
3.770807,0.28975986
3.772853,0.2857246
3.7749,0.28181753
3.77695,0.2780655
3.779001,0.27454648
3.781056,0.27135063
3.783112,0.26852826
3.78517,0.26607894
3.787231,0.26397326
3.789294,0.26217372
3.791359,0.26063861
3.793427,0.2593219
3.795496,0.25818914
3.797568,0.25722834
3.799643,0.25644816
3.801719,0.25585145
3.803798,0.25541035
3.805879,0.25506212
3.807962,0.25472608
3.810048,0.25433039
3.812135,0.25383137
3.814225,0.25321974
3.816318,0.2525109
3.818412,0.25172978
3.820509,0.25089781
3.822609,0.25002751
3.82471,0.24912253
3.826814,0.24818068
3.82892,0.24719644
3.831029,0.24616926
3.833139,0.24510869
3.835252,0.2440286
3.837368,0.24293246
3.839486,0.24180858
3.841606,0.24064124
3.843728,0.23943161
3.845853,0.23820774
3.84798,0.23702216
3.850109,0.23594131
3.852241,0.23502722
3.854375,0.23430611
3.856512,0.23374125
3.85865,0.23323793
3.860792,0.23268219
3.862935,0.23198383
3.865081,0.23108071
3.867229,0.22989999
3.86938,0.22832179
3.871533,0.2262046
3.873689,0.22346196
3.875846,0.2201164
3.878007,0.21628636
3.880169,0.21212415
3.882334,0.20776197
3.884502,0.20330501
3.886672,0.19885672
3.888844,0.1945276
3.891019,0.19041086
3.893196,0.18655144
3.895375,0.18294851
3.897557,0.17959489
3.899742,0.17650766
3.901929,0.17372242
3.904118,0.17126131
3.90631,0.16911125
3.908504,0.16722823
3.9107,0.16555268
3.9129,0.16402128
3.915101,0.16257892
3.917305,0.16119526
3.919512,0.15987285
3.921721,0.1586349
3.923932,0.15750025
3.926146,0.15647316
3.928363,0.15555453
3.930581,0.15475901
3.932803,0.15411567
3.935027,0.15365052
3.937253,0.15337369
3.939482,0.15329025
3.941714,0.15342344
3.943948,0.1538257
3.946184,0.15456515
3.948423,0.1557077
3.950665,0.15731771
3.952909,0.15948305
3.955156,0.16233308
3.957405,0.16602949
3.959657,0.17073041
3.961911,0.17655291
3.964168,0.18355112
3.966427,0.19170403
3.968689,0.20090704
3.970954,0.21096828
3.973221,0.22162272
3.975491,0.232567
3.977763,0.24351146
3.980038,0.25423241
3.982315,0.26460573
3.984595,0.27460054
3.986878,0.28424278
3.989163,0.29357235
3.991451,0.30262442
3.993742,0.3114342
3.996035,0.32004367
3.99833,0.3284899
4.000629,0.33678449
4.00293,0.34490573
4.005233,0.35281117
4.00754,0.36046033
4.009849,0.3678254
4.01216,0.37488484
4.014475,0.38161028
4.016791,0.3879632
4.019111,0.39390545
4.021433,0.39941362
4.023758,0.40448467
4.026086,0.40913053
4.028416,0.41337728
4.030749,0.41727022
4.033085,0.42087783
4.035423,0.42427568
4.037764,0.42750401
4.040108,0.43055184
4.042454,0.43337865
4.044804,0.43596458
4.047155,0.43833733
4.04951,0.44054699
4.051867,0.44261926
4.054228,0.44454121
4.05659,0.44629918
4.058956,0.44792347
4.061324,0.44948895
4.063695,0.45105898
4.066069,0.45263011
4.068446,0.45413772
4.070825,0.45551516
4.073207,0.456755
4.075592,0.45790383
4.07798,0.45900131
4.080371,0.46003371
4.082764,0.46095371
4.08516,0.46174191
4.087559,0.46243784
4.089961,0.4631047
4.092365,0.46376743
4.094773,0.4643975
4.097183,0.46495205
4.099596,0.46541916
4.102012,0.46581972
4.10443,0.46616957
4.106852,0.4664626
4.109276,0.4666859
4.111703,0.46684687
4.114133,0.46697805
4.116566,0.46712225
4.119002,0.4673082
4.121441,0.46753732
4.123882,0.46778922
4.126327,0.46804243
4.128774,0.46829225
4.131224,0.46854808
4.133677,0.46881103
4.136133,0.46906571
4.138592,0.46930187
4.141054,0.46954144
4.143519,0.46983139
4.145987,0.4702039
4.148457,0.47064515
4.150931,0.47110806
4.153407,0.47155246
4.155887,0.47195843
4.158369,0.47231001
4.160854,0.47259036
4.163343,0.47279994
4.165834,0.47297524
4.168328,0.47316485
4.170826,0.47338131
4.173326,0.47359053
4.175829,0.47375916
4.178335,0.47390763
4.180844,0.47411087
4.183356,0.47446815
4.185872,0.47509019
4.18839,0.4761181
4.190911,0.47773368
4.193435,0.4801525
4.195963,0.48363672
4.198493,0.48853911
4.201026,0.49531147
4.203563,0.5044177
4.206102,0.51618642
4.208645,0.53070835
4.21119,0.54784985
4.213739,0.56735826
4.216291,0.58898091
4.218846,0.61247644
4.221404,0.63745389
4.223965,0.66309316
4.226529,0.68799982
4.229096,0.71041742
4.231666,0.72857967
4.23424,0.74070315
4.236816,0.74497734
4.239396,0.74040084
4.241979,0.72731598
4.244565,0.70603122
4.247154,0.67602909
4.249746,0.63907311
4.252341,0.60198404
4.25494,0.57323995
4.257542,0.55806092
4.260146,0.55765048
4.262754,0.57024316
4.265366,0.59098556
4.26798,0.61210279
4.270598,0.62668213
4.273219,0.63328122
4.275843,0.63468565
4.27847,0.63354501
4.2811,0.63110947
4.283734,0.62824598
4.286371,0.62556995
4.289011,0.62271264
4.291655,0.6184815
4.294301,0.61219334
4.296951,0.60454614
4.299604,0.59691172
4.302261,0.59000844
4.30492,0.58341925
4.307583,0.57621033
4.31025,0.56790064
4.312919,0.55890017
4.315592,0.55014004
4.318268,0.54239984
4.320948,0.53594454
4.323631,0.53058966
4.326317,0.52595696
4.329006,0.52168912
4.331699,0.51755999
4.334395,0.51351583
4.337095,0.50966739
4.339797,0.50621233
4.342504,0.50329289
4.345213,0.50088217
4.347926,0.49880955
4.350642,0.49690563
4.353362,0.49512272
4.356085,0.49351562
4.358811,0.49212977
4.361541,0.49093124
4.364275,0.48982587
4.367011,0.48872207
4.369751,0.4875884
4.372495,0.48648753
4.375242,0.48556297
4.377992,0.48496481
4.380746,0.48474638
4.383504,0.4848199
4.386264,0.48503001
4.389029,0.48526221
4.391796,0.4854815
4.394567,0.48568225
4.397342,0.4858436
4.40012,0.48593706
4.402902,0.48596633
4.405687,0.48596857
4.408476,0.4859888
4.411268,0.48605992
4.414064,0.48620475
4.416863,0.48642027
4.419666,0.4866557
4.422472,0.48685438
4.425282,0.48704156
4.428096,0.48732912
4.430913,0.48778471
4.433734,0.48831249
4.436558,0.48870501
4.439386,0.48883579
4.442217,0.48876393
4.445052,0.48862261
4.447891,0.48845274
4.450733,0.48823323
4.453579,0.48803064
4.456428,0.48799257
4.459281,0.48814878
4.462138,0.48831099
4.464998,0.48824744
4.467863,0.48795414
4.47073,0.48771586
4.473602,0.48783759
4.476477,0.48830496
4.479355,0.48876686
4.482238,0.48886378
4.485124,0.48853446
4.488014,0.48801963
4.490908,0.48758891
4.493805,0.48730541
4.496706,0.48705171
4.499611,0.48670936
4.502519,0.48625273
4.505431,0.48571622
4.508347,0.48513439
4.511267,0.48453367
4.514191,0.48394064
4.517118,0.48336318
4.520049,0.48276697
4.522984,0.48209296
4.525923,0.48130159
4.528865,0.48039083
4.531812,0.47938583
4.534762,0.47832546
4.537716,0.47726028
4.540674,0.4762409
4.543635,0.47529643
4.546601,0.47442639
4.54957,0.47361994
4.552543,0.47286267
4.555521,0.47213746
4.558502,0.47145658
4.561487,0.47089945
4.564475,0.47058583
4.567468,0.47056849
4.570465,0.47075365
4.573465,0.47098806
4.57647,0.47121286
4.579478,0.47146976
4.582491,0.4717863
4.585507,0.47212911
4.588527,0.47252016
4.591551,0.47315271
4.59458,0.47429328
4.597612,0.47603393
4.600648,0.47817738
4.603688,0.48039785
4.606732,0.48250639
4.609781,0.4845373
4.612833,0.48663254
4.615889,0.48891524
4.618949,0.49144985
4.622014,0.49424314
4.625082,0.49723556
4.628155,0.50030723
4.631231,0.50334287
4.634312,0.5062765
4.637397,0.50902489
4.640485,0.51145049
4.643578,0.5134958
4.646675,0.51530356
4.649777,0.51711941
4.652882,0.51907643
4.655991,0.5211047
4.659105,0.52304794
4.662223,0.52485945
4.665345,0.52664337
4.668471,0.52851535
4.671601,0.53045978
4.674735,0.53227429
4.677874,0.53362656
4.681017,0.53431876
4.684164,0.53458233
4.687315,0.53502683
4.690471,0.53621848
4.69363,0.53821822
4.696794,0.54046491
4.699962,0.54218836
4.703135,0.54304227
4.706312,0.54335573
4.709493,0.54375419
4.712678,0.54456608
4.715868,0.54563895
4.719062,0.54666052
4.72226,0.54755581
4.725463,0.54851243
4.728669,0.54966244
4.731881,0.55086784
4.735096,0.5518766
4.738316,0.55260112
4.741541,0.5531861
4.744769,0.55385947
4.748002,0.55474214
4.75124,0.55579823
4.754482,0.55693169
4.757728,0.55804215
4.760979,0.55901645
4.764234,0.55978941
4.767494,0.56042829
4.770758,0.56108323
4.774026,0.5618464
4.777299,0.56267528
4.780577,0.56342826
4.783859,0.56400215
4.787145,0.56442932
4.790436,0.56482705
4.793732,0.56526538
4.797032,0.56572198
4.800336,0.56619742
4.803645,0.56678681
4.806959,0.56756592
4.810277,0.56845291
4.8136,0.56924948
4.816927,0.569815
4.820259,0.57022211
4.823596,0.57069379
4.826937,0.57136541
4.830283,0.57217208
4.833633,0.57295301
4.836988,0.57360733
4.840348,0.57413039
4.843712,0.57453503
4.847081,0.57483518
4.850455,0.57510905
4.853833,0.57544976
4.857216,0.575822
4.860604,0.57609602
4.863996,0.57622841
4.867393,0.57634162
4.870795,0.57656871
4.874202,0.57688531
4.877613,0.5771321
4.88103,0.57721449
4.884451,0.57723374
4.887876,0.5773624
4.891307,0.5776253
4.894742,0.57786627
4.898182,0.57791665
4.901627,0.57780163
4.905077,0.57777196
4.908532,0.57808371
4.911991,0.57877526
4.915456,0.57961902
4.918925,0.58022423
4.922399,0.58025124
4.925878,0.57967717
4.929362,0.57891605
4.932851,0.57861867
4.936345,0.57914172
4.939844,0.58014306
4.943347,0.58084067
4.946856,0.58074853
4.95037,0.58017706
4.953888,0.58002406
4.957412,0.58101167
4.960941,0.58303679
4.964474,0.58520337
4.968013,0.58649417
4.971556,0.58651448
4.975105,0.58556534
4.978659,0.58415676
4.982218,0.58276176
4.985782,0.58177813
4.989351,0.58131482
4.992925,0.58114108
4.996504,0.58093624
5.000088,0.58054767
5.003678,0.5800803
5.007272,0.57978876
5.010872,0.5798286
5.014477,0.58003506
5.018087,0.5799437
5.021703,0.57909283
5.025323,0.57737461
5.028949,0.57508091
5.03258,0.57262203
5.036216,0.57023485
5.039857,0.56793597
5.043504,0.56568549
5.047156,0.56355185
5.050813,0.5617488
5.054475,0.56054567
5.058143,0.56012768
5.061816,0.56052503
5.065495,0.56166392
5.069179,0.56346794
5.072868,0.56584414
5.076562,0.56853917
5.080262,0.57106777
5.083967,0.57291683
5.087678,0.57389094
5.091394,0.57423619
5.095115,0.57438804
5.098842,0.57463353
5.102574,0.57498743
5.106312,0.57531289
5.110055,0.57548489
5.113804,0.57547303
5.117558,0.57532495
5.121318,0.57509815
5.125083,0.57482951
5.128854,0.57460984
5.13263,0.57466611
5.136412,0.575243
5.140199,0.57625871
5.143992,0.57709542
5.147791,0.57692168
5.151595,0.57539516
5.155405,0.57300505
5.15922,0.57063922
5.163041,0.56888025
5.166868,0.56771128
5.1707,0.56674467
5.174538,0.5656163
5.178382,0.56424722
5.182231,0.56284881
5.186086,0.56172634
5.189947,0.56101422
5.193814,0.56057722
5.197686,0.56019172
5.201564,0.55977061
5.205448,0.55927363
5.209338,0.55837543
5.213233,0.55648328
5.217134,0.55336674
5.221041,0.54970958
5.224954,0.54672041
5.228873,0.54512447
5.232798,0.5446244
5.236728,0.54433886
5.240665,0.54370733
5.244607,0.54288877
5.248555,0.54233341
5.25251,0.54223168
5.25647,0.54248207
5.260436,0.54299211
5.264408,0.5437603
5.268386,0.54468381
5.27237,0.54552634
5.27636,0.54619166
5.280356,0.54686344
5.284358,0.54766804
5.288367,0.54824976
5.292381,0.54792109
5.296401,0.54635857
5.300428,0.54400813
5.30446,0.54166535
5.308499,0.53979631
5.312544,0.53836781
5.316595,0.5371382
5.320652,0.53588513
5.324715,0.53442896
5.328785,0.53280984
5.33286,0.53160693
5.336942,0.53176897
5.341031,0.53367804
5.345125,0.53621439
5.349226,0.53704199
5.353333,0.53446307
5.357446,0.52908348
5.361566,0.52317191
5.365692,0.5185952
5.369824,0.51569866
5.373962,0.51371045
5.378107,0.51177736
5.382259,0.50965619
5.386417,0.50764641
5.390581,0.50610466
5.394751,0.50517477
5.398928,0.50502422
5.403112,0.50628224
5.407302,0.51000069
5.411498,0.5167665
5.415701,0.52548641
5.419911,0.53317198
5.424127,0.53699647
5.428349,0.53729972
5.432579,0.53764811
5.436814,0.54172459
5.441057,0.55100545
5.445305,0.5651855
5.449561,0.58424929
5.453823,0.60983339
5.458092,0.64419328
5.462368,0.68787554
5.46665,0.73919145
5.470939,0.7974621
5.475234,0.86717533
5.479537,0.95814479
5.483846,0.0108358251
5.488162,0.0126437209
5.492484,0.0154602425
5.496814,0.0201493027
5.50115,0.0245433736
5.505493,0.0215700976
5.509843,0.0155854958
5.5142,0.0108642024
5.518564,0.77771561
5.522934,0.57840922
5.527312,0.44486858
5.531696,0.34942417
5.536087,0.27673635
5.540486,0.21962457
5.544891,0.17506255
5.549303,0.14112706
5.553723,0.11627928
5.558149,0.09803987
5.562582,0.08445342
5.567023,0.07470817
5.57147,0.07029081
5.575925,0.0713677
5.580387,0.07584982
5.584856,0.08066749
5.589332,0.08548857
5.593815,0.09135074
5.598305,0.09827063
5.602803,0.105658
5.607307,0.11280322
5.611819,0.11953953
5.616339,0.12590739
5.620865,0.13191827
5.625399,0.13750259
5.62994,0.14263589
5.634489,0.14746783
5.639044,0.15227969
5.643607,0.1572969
5.648178,0.16251425
5.652756,0.16769189
5.657341,0.17252606
5.661934,0.17684216
5.666534,0.18068827
5.671142,0.18429989
5.675757,0.18794356
5.680379,0.19172726
5.68501,0.19552632
5.689647,0.19908899
5.694293,0.20222631
5.698945,0.20493466
5.703606,0.20739939
5.708274,0.20991923
5.712949,0.21276482
5.717633,0.21598887
5.722324,0.21932744
5.727022,0.22236174
5.731729,0.22484973
5.736443,0.22692043
5.741165,0.22891238
5.745894,0.23098934
5.750631,0.23298798
5.755377,0.23471209
5.76013,0.23632879
5.76489,0.23836517
5.769659,0.24120143
5.774436,0.2446113
5.77922,0.24796771
5.784012,0.25083324
5.788813,0.25323514
5.793621,0.25545676
5.798437,0.25765471
5.803262,0.25969097
5.808094,0.26132475
5.812934,0.26255558
5.817782,0.2637812
5.822639,0.26555858
5.827503,0.26809604
5.832376,0.2710314
5.837257,0.27379529
5.842146,0.2761051
5.847043,0.27807505
5.851948,0.27993936
5.856862,0.28172863
5.861783,0.28323882
5.866714,0.28430408
5.871652,0.28503092
5.876598,0.28577025
5.881553,0.28688415
5.886517,0.28853681
5.891488,0.29067803
5.896468,0.29316684
5.901457,0.29585145
5.906454,0.29853763
5.911459,0.30093388
5.916473,0.3027134
5.921495,0.30371874
5.926526,0.30419219
5.931565,0.30478647
5.936613,0.30613086
5.94167,0.30822006
5.946735,0.31042863
5.951809,0.31218475
5.956891,0.31343469
5.961982,0.31452981
5.967082,0.31582587
5.97219,0.31738657
5.977307,0.31901822
5.982433,0.32051503
5.987568,0.32182934
5.992711,0.32304788
5.997864,0.32423895
6.003025,0.32536648
6.008195,0.32638757
6.013374,0.32740427
6.018562,0.32860167
6.023759,0.3299252
6.028964,0.33091819
6.034179,0.3310444
6.039403,0.33031506
6.044636,0.32967203
6.049878,0.33033249
6.055129,0.33247343
6.060389,0.33511338
6.065658,0.33722345
6.070936,0.33855214
6.076224,0.33960191
6.08152,0.34095111
6.086826,0.34263098
6.092141,0.34419018
6.097466,0.34518946
6.1028,0.34559336
6.108143,0.34583672
6.113495,0.34650434
6.118857,0.34785127
6.124228,0.34966145
6.129609,0.35151544
6.134999,0.35310433
6.140398,0.35438344
6.145807,0.35556552
6.151226,0.35695194
6.156654,0.35867085
6.162091,0.36055474
6.167539,0.36232679
6.172996,0.36394164
6.178462,0.36574245
6.183938,0.36821425
6.189424,0.37150019
6.19492,0.37523418
6.200425,0.37889426
6.20594,0.3822116
6.211465,0.38525786
6.217,0.38826962
6.222544,0.39142581
6.228099,0.39474664
6.233663,0.39813302
6.239237,0.40145744
6.244822,0.40462871
6.250416,0.40760966
6.25602,0.41036697
6.261635,0.41279212
6.267259,0.41468019
6.272893,0.41582475
6.278538,0.41616892
6.284193,0.41587814
6.289858,0.41527165
6.295533,0.4146819
6.301218,0.41436528
6.306914,0.41446038
6.312619,0.41492842
6.318336,0.41552889
6.324062,0.4159548
6.329799,0.41609511
6.335546,0.41620871
6.341304,0.41677894
6.347072,0.4180624
6.352851,0.41981824
6.35864,0.42154125
6.36444,0.42288011
6.37025,0.42384814
6.376071,0.42470675
6.381903,0.42561237
6.387745,0.42640345
6.393598,0.42677166
6.399461,0.42663533
6.405335,0.42640482
6.411221,0.42681722
6.417116,0.42826814
6.423023,0.43042452
6.428941,0.43264893
6.434869,0.43452316
6.440809,0.43595814
6.446759,0.43708872
6.45272,0.43814326
6.458693,0.43929455
6.464676,0.44050589
6.470671,0.44150086
6.476676,0.44198379
6.482693,0.44203619
6.488721,0.44228579
6.49476,0.44342305
6.50081,0.44552504
6.506872,0.44804375
6.512945,0.45032936
6.519029,0.45208038
6.525124,0.45345466
6.531231,0.4548188
6.53735,0.45638036
6.54348,0.45805351
6.549621,0.45961004
6.555774,0.4609268
6.561938,0.46213139
6.568114,0.46351503
6.574302,0.46526192
6.580501,0.46724245
6.586712,0.46911524
6.592934,0.47066383
6.599169,0.47200751
6.605415,0.47344268
6.611673,0.47504837
6.617943,0.47647829
6.624224,0.47720692
6.630518,0.47711623
6.636823,0.47683363
6.643141,0.47720616
6.64947,0.47850745
6.655812,0.48035563
6.662166,0.48212688
6.668532,0.4833666
6.67491,0.4840902
6.6813,0.48478123
6.687702,0.48598032
6.694117,0.48783635
6.700544,0.48998714
6.706983,0.49179712
6.713435,0.49282473
6.719899,0.49316672
6.726375,0.4933167
6.732864,0.49372588
6.739365,0.49454618
6.745879,0.49570302
6.752406,0.49709132
6.758945,0.49867072
6.765497,0.50036974
6.772062,0.50193381
6.778639,0.50296427
6.785229,0.50326226
6.791832,0.5031374
6.798448,0.50320317
6.805076,0.50382742
6.811718,0.50487229
6.818372,0.50593745
6.825039,0.50684978
6.83172,0.50786802
6.838413,0.50934018
6.84512,0.51123827
6.85184,0.51306712
6.858573,0.51427911
6.865319,0.51484908
6.872078,0.51526799
6.878851,0.51598243
6.885637,0.51705977
6.892437,0.51828294
6.89925,0.51939551
6.906076,0.52029265
6.912916,0.52106926
6.919769,0.52196728
6.926636,0.52326106
6.933517,0.52509577
6.940411,0.52733379
6.947319,0.52955932
6.954241,0.53134427
6.961176,0.53260814
6.968125,0.5336512
6.975089,0.53481024
6.982066,0.53615912
6.989057,0.53753836
6.996062,0.53877359
7.003081,0.53984069
7.010114,0.54086264
7.017161,0.54201129
7.024223,0.54339365
7.031298,0.54494351
7.038388,0.54640121
7.045492,0.54749781
7.052611,0.54822023
7.059743,0.54883028
7.066891,0.54960476
7.074052,0.5506317
7.081229,0.55184417
7.088419,0.55317938
7.095625,0.55463547
7.102845,0.55620102
7.110079,0.55782746
7.117329,0.55951614
7.124593,0.56137769
7.131872,0.56352732
7.139166,0.56592372
7.146475,0.56832867
7.153799,0.57046519
7.161137,0.57224835
7.168491,0.57388621
7.17586,0.57572842
7.183244,0.57797274
7.190643,0.5804782
7.198058,0.58287496
7.205487,0.58491166
7.212933,0.58671631
7.220393,0.58866043
7.227869,0.5909864
7.23536,0.59362455
7.242867,0.5963309
7.25039,0.59890703
7.257928,0.60126968
7.265481,0.60339002
7.273051,0.60526355
7.280636,0.60694972
7.288237,0.60857732
7.295854,0.61029001
7.303487,0.61218537
7.311135,0.61427208
7.3188,0.61643154
7.326481,0.61842979
7.334178,0.62004549
7.341891,0.62125378
7.34962,0.62226023
7.357366,0.62332029
7.365128,0.62454395
7.372906,0.62588496
7.380701,0.62727826
7.388512,0.62872449
7.39634,0.6302306
7.404184,0.63174176
7.412045,0.63319969
7.419922,0.63467411
7.427817,0.63637227
7.435728,0.63844865
7.443656,0.64079939
7.451601,0.64307109
7.459562,0.6449122
7.467541,0.64624674
7.475537,0.64729044
7.48355,0.64833088
7.49158,0.64951118
7.499628,0.65080845
7.507692,0.65214116
7.515774,0.65346093
7.523874,0.65476142
7.53199,0.65605718
7.540125,0.65737731
7.548277,0.65876084
7.556446,0.66021775
7.564633,0.66170706
7.572838,0.66316328
7.581061,0.66454489
7.589302,0.6658517
7.59756,0.66709816
7.605837,0.66828704
7.614131,0.66942864
7.622444,0.67055736
7.630774,0.67171559
7.639123,0.67291856
7.647491,0.67414252
7.655876,0.67534658
7.66428,0.67650695
7.672702,0.67762557
7.681143,0.6787249
7.689602,0.67983261
7.69808,0.68096684
7.706577,0.68213122
7.715093,0.68331492
7.723627,0.68450384
7.73218,0.68567851
7.740752,0.68680266
7.749343,0.68783821
7.757953,0.68877364
7.766583,0.68965376
7.775231,0.6905616
7.783899,0.69155693
7.792586,0.69263753
7.801292,0.69374095
7.810018,0.6947933
7.818764,0.69575058
7.827529,0.69660745
7.836313,0.69737615
7.845117,0.69806111
7.853942,0.698646
7.862786,0.69910513
7.871649,0.69943752
7.880533,0.69970052
7.889437,0.69999839
7.898361,0.70043405
7.907305,0.70104805
7.91627,0.70180274
7.925254,0.70262304
7.93426,0.7034511
7.943285,0.70427289
7.952331,0.70510805
7.961398,0.70598433
7.970485,0.70692115
7.979594,0.70792701
7.988723,0.70900902
7.997872,0.71018228
8.007043,0.71146165
8.016235,0.71282724
8.025448,0.71420945
8.034682,0.71552576
8.043937,0.71675214
8.053214,0.71794563
8.062512,0.71916236
8.071832,0.72036301
8.081173,0.72141035
8.090535,0.7221956
8.09992,0.72275276
8.109326,0.72323395
8.118754,0.72378138
8.128204,0.72443843
8.137676,0.72517662
8.147169,0.72596967
8.156686,0.72683028
8.166224,0.72777566
8.175785,0.72878969
8.185368,0.72982366
8.194973,0.73082936
8.204601,0.73177534
8.214252,0.73264583
8.223925,0.73343849
8.233621,0.73416345
8.24334,0.73484001
8.253082,0.73548625
8.262847,0.73611861
8.272635,0.73675536
8.282446,0.73741885
8.292281,0.73812339
8.302139,0.73885976
8.31202,0.73959666
8.321925,0.74029899
8.331853,0.74095296
8.341805,0.741571
8.351781,0.74218021
8.361781,0.74280411
8.371804,0.74345281
8.381852,0.74413179
8.391924,0.74484011
8.40202,0.74556865
8.41214,0.74628983
8.422285,0.74695895
8.432454,0.74754064
8.442648,0.74803854
8.452866,0.74850077
8.463109,0.74899644
8.473377,0.74957121
8.48367,0.75022811
8.493988,0.75094058
8.504331,0.75167638
8.514699,0.75241131
8.525092,0.75313112
8.535511,0.75382816
8.545955,0.75450217
8.556425,0.75515219
8.566921,0.75577484
8.577442,0.75637224
8.587989,0.75696788
8.598562,0.75760562
8.609161,0.75831474
8.619786,0.75907654
8.630437,0.75982645
8.641115,0.76049791
8.651819,0.76107123
8.66255,0.76158214
8.673307,0.76209203
8.684091,0.76264745
8.694902,0.76326396
8.705739,0.76393502
8.716604,0.76464422
8.727496,0.7653666
8.738415,0.76606244
8.749361,0.766694
8.760335,0.76725154
8.771336,0.76777099
8.782365,0.76831186
8.793422,0.76890996
8.804507,0.76955548
8.815619,0.77020989
8.82676,0.77085596
8.837928,0.77151273
8.849125,0.77220608
8.860351,0.7729194
8.871604,0.77358156
8.882887,0.77411556
8.894198,0.77451053
8.905538,0.77482958
8.916907,0.77514331
8.928305,0.77546685
8.939732,0.77575764
8.951188,0.77597477
8.962673,0.77613074
8.974189,0.77627877
8.985733,0.77646243
8.997308,0.77667917
9.008912,0.77689276
9.020546,0.77706998
9.03221,0.77720889
9.043905,0.7773343
9.055629,0.77747119
9.067384,0.77760216
9.07917,0.77766385
9.090986,0.77760063
9.102833,0.77743154
9.114711,0.77725132
9.12662,0.77714497
9.13856,0.77710926
9.150531,0.777071
9.162534,0.77698851
9.174568,0.77690949
9.186634,0.77692999
9.198731,0.77709978
9.21086,0.77739245
9.223022,0.77775394
9.235215,0.77815013
9.247441,0.77856229
9.259699,0.7789651
9.27199,0.77933203
9.284313,0.77966293
9.296669,0.77999496
9.309058,0.78037142
9.32148,0.78081923
9.333935,0.78134692
9.346423,0.78195286
9.358945,0.78262102
9.3715,0.78330576
9.384089,0.78395472
9.396712,0.7845512
9.409369,0.78513365
9.42206,0.78576686
9.434785,0.78648244
9.447545,0.78725545
9.460339,0.78803622
9.473167,0.78879779
9.486031,0.78955064
9.498929,0.79031585
9.511863,0.79109674
9.524832,0.7918813
9.537836,0.79265662
9.550876,0.79342097
9.563951,0.79417076
9.577062,0.7948905
9.590209,0.79556875
9.603393,0.79622518
9.616612,0.79690406
9.629868,0.79763839
9.64316,0.79841038
9.65649,0.79916763
9.669856,0.79986129
9.683259,0.80048609
9.696699,0.80108233
9.710176,0.801713
9.723691,0.80242624
9.737244,0.80322253
9.750834,0.80405106
9.764463,0.80485798
9.778129,0.80564869
9.791834,0.80649298
9.805577,0.80745176
9.819359,0.80849142
9.83318,0.80949938
9.847039,0.81039265
9.860938,0.81119613
9.874875,0.81200132
9.888853,0.81286144
9.902869,0.81374532
9.916926,0.81459798
9.931022,0.81541227
9.945159,0.81622765
9.959336,0.81707045
9.973553,0.81791973
9.987811,0.81873424
10.002109,0.81949794
10.016449,0.82022815
10.03083,0.82094052
10.045252,0.82163137
10.059715,0.82228113
10.074221,0.82287506
10.088768,0.82341011
10.103357,0.82389119
10.117988,0.82433041
10.132662,0.82475412
10.147378,0.82518943
10.162137,0.82565189
10.176939,0.82613891
10.191784,0.82663719
10.206672,0.82713523
10.221604,0.82762894
10.23658,0.828112
10.2516,0.82857515
10.266663,0.82900859
10.281771,0.82940477
10.296924,0.82976602
10.312121,0.83010711
10.327363,0.83046006
10.34265,0.83085499
10.357982,0.83128864
10.37336,0.83171757
10.388784,0.83207821
10.404253,0.83234355
10.419769,0.83254486
10.435331,0.83274751
10.450939,0.83299599
10.466594,0.83329323
10.482296,0.83361399
10.498045,0.83393686
10.513842,0.83425293
10.529686,0.83456158
10.545577,0.83486055
10.561517,0.83514737
10.577505,0.83542
10.593542,0.83567266
10.609627,0.83589249
10.625761,0.83606702
10.641944,0.83619652
10.658176,0.83629895
10.674458,0.83639349
10.69079,0.83648521
10.707172,0.83655681
10.723604,0.8365868
10.740086,0.83656968
10.756619,0.83652135
10.773203,0.83647037
10.789839,0.83644534
10.806525,0.83645969
10.823264,0.8365109
10.840054,0.83657892
10.856896,0.83663242
10.873791,0.83664492
10.890738,0.83660289
10.907738,0.83650832
10.924791,0.83637278
10.941898,0.83621237
10.959058,0.83603842
10.976272,0.83583912
10.993541,0.83556051
11.010863,0.83512169
11.02824,0.83447179
11.045672,0.83363977
11.06316,0.83272846
11.080702,0.8318578
11.098301,0.83109766
11.115955,0.83045477
11.133665,0.82989293
11.151432,0.82937301
11.169256,0.82887407
11.187137,0.82840929
11.205075,0.82801587
11.22307,0.82772919
11.241124,0.82755139
11.259235,0.82744202
11.277405,0.82735329
11.295634,0.82726421
11.313921,0.82718802
11.332268,0.82714642
11.350675,0.82714644
11.369141,0.82719009
11.387667,0.82728963
11.406254,0.82746976
11.424901,0.82774905
11.44361,0.82811837
11.46238,0.8285376
11.481211,0.82894655
11.500105,0.82928583
11.51906,0.82951422
11.538079,0.82961283
11.55716,0.82958236
11.576304,0.82944039
11.595511,0.82923177
11.614783,0.82905168
11.634118,0.82902102
11.653518,0.82921289
11.672983,0.82957623
11.692513,0.82994315
11.712108,0.83013825
11.731769,0.83010457
11.751496,0.82993556
11.77129,0.82978646
11.79115,0.8297547
11.811077,0.8298407
11.831072,0.82998795
11.851134,0.83014412
11.871265,0.83028139
11.891464,0.8303861
11.911731,0.8304408
11.932068,0.83043507
11.952475,0.8303701
11.972951,0.8302568
11.993497,0.83009637
12.014114,0.82987786
12.034802,0.82959439
12.055562,0.8292613
12.076393,0.8289145
12.097296,0.82857388
12.118271,0.82822926
12.13932,0.82786284
12.160441,0.82750967
12.181636,0.82726521
12.202905,0.82721126
12.224249,0.82732731
12.245667,0.82747217
12.26716,0.82748273
12.288729,0.82729719
12.310373,0.82699886
12.332094,0.82674454
12.353892,0.82664435
12.375767,0.82670544
12.397719,0.82685898
12.41975,0.82703036
12.441859,0.82718052
12.464046,0.82730863
12.486313,0.82743916
12.508659,0.82761744
12.531086,0.82787986
12.553593,0.8282141
12.57618,0.82853379
12.59885,0.82873208
12.621601,0.8287769
12.644434,0.82876223
12.66735,0.82882907
12.690349,0.82904959
12.713432,0.82937006
12.736599,0.82966484
12.75985,0.82983713
12.783187,0.82987976
12.806608,0.82984915
12.830116,0.82979768
12.85371,0.82973185
12.877391,0.82961533
12.901159,0.82941271
12.925016,0.82912206
12.94896,0.82877487
12.972993,0.82840722
12.997116,0.82802643
13.021329,0.82760773
13.045631,0.82712338
13.070025,0.82657575
13.09451,0.82598463
13.119087,0.82536495
13.143756,0.82471696
13.168518,0.82404892
13.193373,0.82338968
13.218322,0.82276141
13.243366,0.82214959
13.268505,0.82151019
13.29374,0.82081937
13.31907,0.8201062
13.344497,0.81942581
13.370021,0.81880946
13.395644,0.81823474
13.421364,0.81764413
13.447183,0.81696976
13.473102,0.81618256
13.499121,0.81534376
13.52524,0.81460998
13.551461,0.81412109
13.577783,0.81383211
13.604208,0.81348467
13.630736,0.81279752
13.657367,0.81171188
13.684103,0.81042317
13.710943,0.80916685
13.737889,0.80799468
13.764941,0.80680421
13.792099,0.80553666
13.819365,0.80425499
13.846739,0.80301618
13.874221,0.8017547
13.901813,0.80035306
13.929515,0.79879481
13.957327,0.79717133
13.98525,0.79552002
14.013285,0.7937343
14.041433,0.79166019
14.069694,0.78926702
14.098068,0.78667273
14.126558,0.78400452
14.155163,0.78127446
14.183883,0.77841679
14.212721,0.77538323
14.241676,0.77218007
14.270749,0.76883467
14.29994,0.76533939
14.329252,0.76162509
14.358684,0.75757455
14.388237,0.75310556
14.417911,0.7482625
14.447709,0.74322054
14.477629,0.73812363
14.507674,0.73287808
14.537844,0.72715419
14.568139,0.72063612
14.598561,0.71327657
14.629109,0.70527301
14.659786,0.69682851
14.690592,0.68797623
14.721528,0.6786655
14.752594,0.66900548
14.783791,0.65925092
14.815121,0.6493645
14.846583,0.63872215
14.878179,0.62652425
14.90991,0.61266511
14.941777,0.59816966
14.97378,0.58438581
15.00592,0.57147185
15.038198,0.55809727
15.070616,0.54275618
15.103173,0.52503754
15.135871,0.50567707
15.168712,0.48558677
15.201695,0.46500028
15.234821,0.44365447
15.268092,0.42152087
15.301509,0.39908206
15.335072,0.3769957
15.368783,0.35572361
15.402642,0.33544475
15.436651,0.3160657
15.47081,0.29727995
15.50512,0.27883581
15.539583,0.26085277
15.574199,0.24380378
15.60897,0.22816162
15.643896,0.21413789
15.678979,0.20172243
15.71422,0.19081617
15.749619,0.18126503
15.785178,0.17262284
15.820897,0.16447096
15.856779,0.15682256
15.892824,0.1500997
15.929033,0.14463837
15.965407,0.14034108
