Database of Origin,University of Winnipeg Spectrophotometer Facility
Sample Description,See Master Clays in HOSERLab database
Date Added,2016-12-11 20:56:55.301610

Data ID,FTIR_CLAY_11        
Sample ID,MON101
Mineral Name,Montmorillonite
Grain Size,<45 m
Viewing Geometry,35/0
Resolution,11-72 nm
Material Class,Phyllosilicate

Wavelength
2001.142,0.31205054
2002.307,0.31262499
2003.474,0.3128507
2004.643,0.31368512
2005.812,0.31465939
2006.983,0.31504158
2008.155,0.3156274
2009.329,0.31692795
2010.504,0.3180078
2011.68,0.31817194
2012.858,0.31846974
2014.037,0.31943799
2015.217,0.32006669
2016.399,0.32058672
2017.582,0.32132341
2018.766,0.32193757
2019.952,0.3227039
2021.139,0.32361182
2022.328,0.32444749
2023.518,0.32507326
2024.709,0.32545885
2025.902,0.32592239
2027.096,0.32603592
2028.291,0.3259056
2029.488,0.32671101
2030.686,0.32752245
2031.886,0.32775533
2033.087,0.32820638
2034.289,0.32843541
2035.493,0.32867927
2036.698,0.32923172
2037.905,0.32997662
2039.113,0.33075969
2040.322,0.33111023
2041.533,0.33166338
2042.746,0.33262598
2043.959,0.33335923
2045.174,0.33384755
2046.391,0.33409998
2047.609,0.33416538
2048.828,0.33463731
2050.049,0.33527208
2051.271,0.33585014
2052.495,0.33692913
2053.72,0.33754429
2054.947,0.3369759
2056.175,0.33654928
2057.404,0.33693447
2058.635,0.33754677
2059.867,0.33784439
2061.101,0.33819841
2062.336,0.33890693
2063.573,0.33907967
2064.811,0.3391972
2066.051,0.33976918
2067.292,0.33999519
2068.534,0.34013093
2069.778,0.34047135
2071.024,0.34043309
2072.271,0.34032476
2073.519,0.34081207
2074.769,0.3411187
2076.02,0.34131627
2077.273,0.3418599
2078.528,0.34197758
2079.784,0.34204155
2081.041,0.34242797
2082.3,0.34278509
2083.56,0.34321103
2084.822,0.34340106
2086.085,0.34351184
2087.35,0.34377387
2088.617,0.34384984
2089.885,0.344061
2091.154,0.34441296
2092.425,0.34452299
2093.697,0.34458833
2094.971,0.34491461
2096.247,0.34523514
2097.524,0.34536339
2098.803,0.34566581
2100.083,0.34611589
2101.364,0.34632852
2102.648,0.34669276
2103.932,0.34746019
2105.219,0.34775297
2106.506,0.34758763
2107.796,0.34767007
2109.087,0.34798335
2110.379,0.34834215
2111.673,0.34891935
2112.969,0.34952488
2114.266,0.34997381
2115.565,0.35024642
2116.865,0.35006966
2118.167,0.35030309
2119.471,0.35115433
2120.776,0.35167387
2122.082,0.35205116
2123.391,0.35255407
2124.7,0.3527432
2126.012,0.35231165
2127.325,0.35189448
2128.64,0.35199506
2129.956,0.35211356
2131.274,0.35208207
2132.593,0.35238305
2133.914,0.35309438
2135.237,0.35361195
2136.561,0.35354649
2137.887,0.35352185
2139.214,0.35383683
2140.544,0.35419288
2141.874,0.35450833
2143.207,0.3546559
2144.541,0.35450878
2145.876,0.35390656
2147.214,0.35325654
2148.553,0.35315859
2149.893,0.35327645
2151.235,0.35340231
2152.579,0.35365459
2153.925,0.35325864
2155.272,0.35212539
2156.621,0.35143581
2157.972,0.35139257
2159.324,0.35094461
2160.678,0.34991275
2162.033,0.34907909
2163.39,0.34844772
2164.749,0.34777121
2166.11,0.34731714
2167.472,0.34700331
2168.836,0.34626915
2170.202,0.34550782
2171.569,0.34468
2172.938,0.34309622
2174.309,0.34142551
2175.682,0.34039507
2177.056,0.33982514
2178.432,0.33873572
2179.809,0.3373477
2181.189,0.33660629
2182.57,0.33600096
2183.952,0.33512002
2185.337,0.33396998
2186.723,0.33291418
2188.111,0.3322565
2189.501,0.33176811
2190.892,0.33104341
2192.285,0.32997658
2193.68,0.328674
2195.077,0.32699314
2196.476,0.32594847
2197.876,0.32547754
2199.278,0.32433111
2200.682,0.32319676
2202.087,0.322143
2203.494,0.32064773
2204.903,0.31923542
2206.314,0.31862889
2207.727,0.31882689
2209.141,0.31922417
2210.557,0.31963711
2211.975,0.31980812
2213.395,0.32029856
2214.817,0.32110858
2216.24,0.32177607
2217.665,0.32273726
2219.092,0.32367421
2220.521,0.32418342
2221.952,0.32450909
2223.384,0.32489249
2224.818,0.32535277
2226.254,0.32595695
2227.692,0.32664507
2229.132,0.32742495
2230.574,0.32801402
2232.017,0.32827953
2233.462,0.32860862
2234.91,0.32883066
2236.359,0.32904538
2237.809,0.32970854
2239.262,0.33021142
2240.717,0.33030147
2242.173,0.33108269
2243.631,0.33214343
2245.092,0.33264241
2246.554,0.33317891
2248.017,0.33378104
2249.483,0.33430495
2250.951,0.33509931
2252.421,0.33600365
2253.892,0.33655534
2255.365,0.3369214
2256.841,0.33735038
2258.318,0.33791267
2259.797,0.33879983
2261.278,0.33964915
2262.761,0.34019307
2264.246,0.34070692
2265.732,0.34120976
2267.221,0.34156032
2268.712,0.34162493
2270.204,0.34160174
2271.699,0.34183315
2273.195,0.34191456
2274.694,0.34156068
2276.194,0.34148649
2277.696,0.3414954
2279.201,0.34112549
2280.707,0.34121293
2282.215,0.34147253
2283.725,0.34114725
2285.237,0.34049505
2286.752,0.34014774
2288.268,0.34022089
2289.786,0.34033857
2291.306,0.34020782
2292.828,0.33981925
2294.352,0.33975687
2295.878,0.33975355
2297.406,0.33917583
2298.936,0.33864581
2300.468,0.33850145
2302.002,0.33806245
2303.539,0.33753854
2305.077,0.33699148
2306.617,0.3362013
2308.159,0.33566549
2309.703,0.33532093
2311.25,0.33471484
2312.798,0.33390922
2314.348,0.33331362
2315.901,0.33245864
2317.455,0.33126893
2319.012,0.33025931
2320.571,0.32933319
2322.131,0.32860532
2323.694,0.32785624
2325.259,0.32691834
2326.826,0.32584717
2328.395,0.32447303
2329.966,0.32346492
2331.54,0.32287852
2333.115,0.32187767
2334.692,0.32047432
2336.272,0.31907057
2337.854,0.31820976
2339.437,0.31758568
2341.023,0.31676082
2342.611,0.31613812
2344.201,0.31543777
2345.794,0.31478597
2347.388,0.31468532
2348.985,0.31447808
2350.583,0.31371147
2352.184,0.31309507
2353.787,0.31280613
2355.393,0.31250085
2357.0,0.31216965
2358.609,0.31146202
2360.221,0.31090579
2361.835,0.31070036
2363.451,0.31005458
2365.069,0.30951626
2366.69,0.30904891
2368.312,0.30823275
2369.937,0.30770783
2371.564,0.30733384
2373.194,0.30680135
2374.825,0.30621539
2376.459,0.3055124
2378.095,0.30492789
2379.733,0.30461743
2381.373,0.30432382
2383.016,0.30393418
2384.661,0.30370021
2386.308,0.30333153
2387.957,0.30264383
2389.609,0.30222249
2391.263,0.30197807
2392.919,0.30161258
2394.577,0.30091026
2396.238,0.30004282
2397.901,0.29953415
2399.566,0.29900489
2401.233,0.29835128
2402.903,0.29795652
2404.575,0.29753503
2406.25,0.29696602
2407.926,0.29645071
2409.606,0.2958193
2411.287,0.29498787
2412.971,0.29409666
2414.657,0.29319851
2416.345,0.29218739
2418.036,0.29108381
2419.729,0.28998725
2421.424,0.28891899
2423.122,0.28802032
2424.822,0.28711416
2426.524,0.28620032
2428.229,0.28527952
2429.936,0.28402008
2431.646,0.28287351
2433.358,0.28199106
2435.072,0.28107664
2436.789,0.2801122
2438.508,0.27925151
2440.229,0.27867202
2441.953,0.2781278
2443.679,0.27765072
2445.408,0.27723534
2447.139,0.2765861
2448.873,0.27573177
2450.609,0.27498969
2452.347,0.2745928
2454.088,0.27415866
2455.831,0.27343909
2457.577,0.27273616
2459.325,0.27202697
2461.076,0.27134286
2462.829,0.27076734
2464.585,0.27016985
2466.343,0.26978414
2468.104,0.26961615
2469.867,0.26925937
2471.632,0.2685111
2473.4,0.26761642
2475.171,0.26687146
2476.944,0.2661502
2478.72,0.26556277
2480.498,0.26524254
2482.278,0.26480996
2484.062,0.26384218
2485.847,0.26297499
2487.636,0.2629095
2489.427,0.26271521
2491.22,0.26190821
2493.016,0.26103419
2494.814,0.26056648
2496.615,0.26046954
2498.419,0.25999768
2500.225,0.25940457
2502.034,0.25926727
2503.845,0.2591143
2505.659,0.25864568
2507.476,0.25817945
2509.295,0.25800986
2511.117,0.25781796
2512.942,0.25744141
2514.769,0.25704254
2516.598,0.25659168
2518.431,0.25636542
2520.266,0.25632383
2522.103,0.25640013
2523.944,0.25638997
2525.787,0.25605163
2527.632,0.25579734
2529.48,0.25586746
2531.331,0.25620136
2533.185,0.25646087
2535.041,0.25662966
2536.9,0.25636898
2538.762,0.25555315
2540.627,0.25559442
2542.494,0.25663828
2544.364,0.25677946
2546.236,0.25646452
2548.112,0.25663641
2549.99,0.25698001
2551.87,0.25742637
2553.754,0.25690566
2555.64,0.25577749
2557.529,0.25562419
2559.421,0.25749662
2561.316,0.2608189
2563.213,0.26147982
2565.113,0.25859215
2567.016,0.25689233
2568.922,0.25722655
2570.831,0.25761015
2572.742,0.25846085
2574.656,0.25926695
2576.573,0.25833902
2578.493,0.25666095
2580.416,0.25660173
2582.342,0.25847932
2584.27,0.25906465
2586.201,0.25789123
2588.135,0.25656295
2590.072,0.25482773
2592.012,0.25563596
2593.955,0.26121818
2595.9,0.26072647
2597.849,0.25410967
2599.8,0.25191721
2601.755,0.25330518
2603.712,0.25607299
2605.672,0.25684053
2607.635,0.25412166
2609.601,0.25123899
2611.57,0.24949991
2613.542,0.24942056
2615.517,0.2513509
2617.495,0.25268896
2619.475,0.25150208
2621.459,0.24800358
2623.446,0.24480373
2625.435,0.24478603
2627.428,0.24595132
2629.424,0.2467965
2631.423,0.24601132
2633.424,0.24252249
2635.429,0.23913748
2637.437,0.23672376
2639.447,0.23545043
2641.461,0.23462853
2643.478,0.2338599
2645.498,0.23314006
2647.521,0.23091384
2649.547,0.22871044
2651.576,0.22830516
2653.609,0.22760572
2655.644,0.22509001
2657.682,0.22295695
2659.724,0.22185344
2661.768,0.22002533
2663.816,0.22090699
2665.867,0.22393995
2667.921,0.22217418
2669.978,0.21955922
2672.038,0.21252736
2674.102,0.20642176
2676.168,0.20705089
2678.238,0.20406599
2680.311,0.1933733
2682.387,0.18617105
2684.467,0.18185132
2686.549,0.17557169
2688.635,0.16618283
2690.724,0.15761652
2692.816,0.15349898
2694.911,0.1470046
2697.01,0.13303258
2699.112,0.12215656
2701.217,0.11394953
2703.325,0.10435972
2705.437,0.09678903
2707.552,0.09440202
2709.67,0.09496071
2711.791,0.08840956
2713.916,0.07695764
2716.044,0.06896599
2718.175,0.06818444
2720.31,0.0717456
2722.448,0.0680226
2724.589,0.06088781
2726.734,0.05232337
2728.882,0.04518684
2731.034,0.04133208
2733.188,0.03931705
2735.347,0.03712173
2737.508,0.03477024
2739.673,0.03571168
2741.841,0.03389889
2744.013,0.02788617
2746.188,0.02486812
2748.367,0.02383032
2750.549,0.02321986
2752.734,0.02341984
2754.923,0.02491266
2757.115,0.02416062
2759.311,0.02166418
2761.51,0.02156065
2763.713,0.02258437
2765.919,0.02267324
2768.129,0.02255221
2770.342,0.02249199
2772.559,0.02183231
2774.779,0.02079623
2777.003,0.02049785
2779.23,0.02076
2781.461,0.02087917
2783.696,0.02066968
2785.934,0.02107351
2788.175,0.02189954
2790.42,0.02106428
2792.669,0.02029888
2794.922,0.02029241
2797.178,0.02019093
2799.437,0.02021509
2801.7,0.02112806
2803.967,0.02248313
2806.238,0.02194838
2808.512,0.02100186
2810.789,0.0205307
2813.071,0.02042779
2815.356,0.02064776
2817.645,0.02098063
2819.937,0.02130375
2822.233,0.02089976
2824.533,0.02007146
2826.837,0.02018015
2829.144,0.02025822
2831.455,0.02004222
2833.77,0.02029169
2836.089,0.02025282
2838.411,0.01960368
2840.737,0.01893888
2843.067,0.01886228
2845.401,0.01891279
2847.739,0.01865905
2850.08,0.01860648
2852.425,0.01883336
2854.774,0.01894029
2857.127,0.01845715
2859.484,0.01802851
2861.844,0.01797096
2864.209,0.01805284
2866.577,0.01813649
2868.949,0.01794073
2871.325,0.01764454
2873.705,0.01749743
2876.089,0.01701211
2878.477,0.01679014
2880.869,0.01703229
2883.265,0.01675072
2885.664,0.01626686
2888.068,0.01631879
2890.476,0.0166148
2892.887,0.01653196
2895.303,0.01617429
2897.723,0.01606368
2900.146,0.01611903
2902.574,0.01622631
2905.006,0.01634996
2907.441,0.01625797
2909.881,0.01596329
2912.325,0.01575359
2914.773,0.01580662
2917.225,0.01603688
2919.681,0.01590482
2922.142,0.01571474
2924.606,0.01564941
2927.075,0.01555734
2929.547,0.01522227
2932.024,0.01493039
2934.505,0.01483679
2936.99,0.01486394
2939.479,0.01494448
2941.973,0.01492171
2944.471,0.01496438
2946.973,0.01527263
2949.479,0.01539702
2951.989,0.01496187
2954.504,0.01498515
2957.023,0.01514058
2959.546,0.01493535
2962.073,0.01487636
2964.605,0.01503611
2967.141,0.01513271
2969.681,0.01500254
2972.226,0.01490648
2974.775,0.01530638
2977.328,0.01541893
2979.886,0.01490755
2982.448,0.01478247
2985.015,0.01469266
2987.586,0.0146385
2990.161,0.01495051
2992.74,0.01527618
2995.324,0.01503936
2997.913,0.01486503
3000.506,0.01494227
3003.103,0.01511863
3005.705,0.01499705
3008.312,0.01479758
3010.922,0.01478414
3013.538,0.01506893
3016.158,0.01531656
3018.782,0.01508895
3021.411,0.01483115
3024.044,0.01486954
3026.683,0.01533029
3029.325,0.01635431
3031.972,0.01761199
3034.624,0.01736622
3037.281,0.01625533
3039.942,0.0161232
3042.607,0.01649192
3045.278,0.0165733
3047.953,0.01632834
3050.632,0.01614283
3053.317,0.0161138
3056.006,0.0161084
3058.7,0.01622213
3061.398,0.0166959
3064.101,0.01757268
3066.809,0.01762438
3069.522,0.01695617
3072.239,0.01684746
3074.962,0.016951
3077.689,0.01704362
3080.421,0.01727507
3083.157,0.01724368
3085.899,0.01748069
3088.645,0.01798848
3091.396,0.01785751
3094.153,0.0176581
3096.914,0.01789169
3099.679,0.01875305
3102.45,0.01935556
3105.226,0.0188382
3108.007,0.01827801
3110.792,0.0183223
3113.583,0.0187737
3116.378,0.01902653
3119.179,0.01895862
3121.985,0.01904749
3124.795,0.01925799
3127.611,0.0194757
3130.431,0.0198181
3133.257,0.02017489
3136.088,0.02048942
3138.924,0.02091124
3141.765,0.02138185
3144.611,0.02184033
3147.462,0.02228644
3150.319,0.02259323
3153.18,0.02296722
3156.047,0.02355018
3158.919,0.02413964
3161.796,0.02453419
3164.678,0.02506408
3167.566,0.02581644
3170.458,0.02654452
3173.356,0.02710689
3176.26,0.02784621
3179.168,0.02977125
3182.082,0.03133832
3185.001,0.03094536
3187.926,0.03058224
3190.856,0.03154816
3193.791,0.03322342
3196.731,0.03396921
3199.677,0.03387594
3202.629,0.03455756
3205.585,0.0354923
3208.548,0.03608443
3211.515,0.03799567
3214.488,0.04127395
3217.467,0.04309326
3220.451,0.04240886
3223.441,0.04188852
3226.436,0.04273692
3229.437,0.04304932
3232.443,0.04356129
3235.455,0.04496955
3238.472,0.04571667
3241.495,0.04650343
3244.523,0.04820899
3247.558,0.04976376
3250.598,0.051369
3253.643,0.05343567
3256.694,0.05519933
3259.751,0.0554544
3262.814,0.05450647
3265.882,0.05492779
3268.956,0.05696438
3272.036,0.05829471
3275.122,0.05839666
3278.213,0.05898628
3281.31,0.06037543
3284.413,0.06192935
3287.522,0.06346284
3290.637,0.06466711
3293.757,0.06671714
3296.884,0.06892024
3300.016,0.06918843
3303.155,0.06973879
3306.299,0.07153478
3309.449,0.07242376
3312.605,0.07298454
3315.767,0.07428573
3318.936,0.07567935
3322.11,0.07727478
3325.29,0.07988867
3328.476,0.08290521
3331.669,0.08383048
3334.867,0.08284123
3338.072,0.08291207
3341.282,0.08436981
3344.499,0.08627728
3347.722,0.08821764
3350.952,0.08991771
3354.187,0.09071822
3357.429,0.09087786
3360.677,0.09213994
3363.931,0.09437011
3367.191,0.0959849
3370.458,0.09696661
3373.731,0.09787659
3377.01,0.09851397
3380.296,0.09955067
3383.588,0.10145927
3386.886,0.10342101
3390.191,0.1049297
3393.502,0.10675095
3396.82,0.10899619
3400.144,0.11075124
3403.475,0.11280413
3406.812,0.11488921
3410.156,0.11532147
3413.506,0.11546005
3416.862,0.11661885
3420.226,0.11874113
3423.596,0.12151945
3426.972,0.12329154
3430.355,0.12427442
3433.745,0.12605321
3437.141,0.12888658
3440.545,0.13245428
3443.954,0.1349115
3447.371,0.13509514
3450.794,0.13526605
3454.224,0.1366733
3457.661,0.13833476
3461.105,0.1402154
3464.556,0.14212724
3468.013,0.14342928
3471.477,0.14459596
3474.948,0.14599465
3478.426,0.14749178
3481.911,0.1489681
3485.403,0.1504436
3488.902,0.15295796
3492.408,0.15540964
3495.921,0.15606759
3499.441,0.1565928
3502.968,0.15806239
3506.502,0.16008163
3510.043,0.1620601
3513.592,0.16363635
3517.147,0.16542902
3520.71,0.16759146
3524.28,0.16949119
3527.857,0.17116725
3531.441,0.17385046
3535.032,0.17646708
3538.631,0.17731204
3542.237,0.17802684
3545.851,0.17948349
3549.471,0.18098688
3553.099,0.18252348
3556.735,0.18415743
3560.378,0.18585441
3564.028,0.18754393
3567.686,0.18944382
3571.351,0.19144668
3575.024,0.19308498
3578.704,0.19452436
3582.392,0.19631296
3586.088,0.19831092
3589.791,0.19980111
3593.501,0.20133912
3597.22,0.20316574
3600.946,0.20416807
3604.679,0.20489194
3608.421,0.20609427
3612.17,0.20785648
3615.926,0.20990318
3619.691,0.21124798
3623.463,0.21227424
3627.244,0.21350139
3631.032,0.21462351
3634.828,0.21571645
3638.632,0.21712481
3642.444,0.21863475
3646.263,0.219968
3650.091,0.22135019
3653.927,0.22252116
3657.771,0.22328027
3661.623,0.22438296
3665.483,0.22586568
3669.351,0.22704681
3673.227,0.22814216
3677.111,0.22959208
3681.004,0.23120902
3684.905,0.23238774
3688.814,0.23323173
3692.731,0.23413569
3696.656,0.235225
3700.59,0.23656102
3704.532,0.23779859
3708.483,0.23887865
3712.442,0.23999056
3716.409,0.24098865
3720.385,0.24196729
3724.37,0.24306533
3728.362,0.24408591
3732.364,0.24497183
3736.374,0.24592697
3740.392,0.2470958
3744.419,0.2483256
3748.455,0.24938936
3752.499,0.250267
3756.553,0.25109663
3760.614,0.25192915
3764.685,0.25277182
3768.764,0.25369749
3772.853,0.25472991
3776.95,0.25575431
3781.056,0.25661909
3785.17,0.25738982
3789.294,0.25819064
3793.427,0.2589584
3797.568,0.25981209
3801.719,0.26085591
3805.879,0.26178277
3810.048,0.26247622
3814.225,0.26318481
3818.412,0.26389487
3822.609,0.26450815
3826.814,0.26518412
3831.029,0.2659259
3835.252,0.26662598
3839.486,0.26728143
3843.728,0.26791491
3847.98,0.2685141
3852.241,0.26911217
3856.512,0.26972691
3860.792,0.27026384
3865.081,0.27084984
3869.38,0.27154254
3873.689,0.2720882
3878.007,0.27244508
3882.334,0.27295221
3886.672,0.27360823
3891.019,0.27411945
3895.375,0.27459039
3899.742,0.27502721
3904.118,0.27543332
3908.504,0.27587272
3912.9,0.27624686
3917.305,0.27658883
3921.721,0.27696022
3926.146,0.27728618
3930.581,0.27754549
3935.027,0.2778237
3939.482,0.278127
3943.948,0.27846509
3948.423,0.27874836
3952.909,0.27904945
3957.405,0.27945433
3961.911,0.27979533
3966.427,0.28009074
3970.954,0.2804517
3975.491,0.28093372
3980.038,0.28133779
3984.595,0.2814261
3989.163,0.28146947
3993.742,0.28159687
3998.33,0.28171306
4002.93,0.2818118
4007.54,0.28189522
4012.16,0.28185013
4016.791,0.28164175
4021.433,0.2817135
4026.086,0.28191271
4030.749,0.28193142
4035.423,0.28197486
4040.108,0.28207254
4044.804,0.28210515
4049.51,0.2819557
4054.228,0.28193402
4058.956,0.28211225
4063.695,0.28224067
4068.446,0.28236941
4073.207,0.28243688
4077.98,0.28246008
4082.764,0.28254614
4087.559,0.28263692
4092.365,0.28264777
4097.183,0.28265258
4102.012,0.28277158
4106.852,0.2830507
4111.703,0.28330666
4116.566,0.28343579
4121.441,0.28365954
4126.327,0.28395408
4131.224,0.28419644
4136.133,0.28429295
4141.054,0.28442031
4145.987,0.28473657
4150.931,0.28502319
4155.887,0.28525818
4160.854,0.28546652
4165.834,0.28582149
4170.826,0.28625629
4175.829,0.28646823
4180.844,0.28667993
4185.872,0.28728691
4190.911,0.28872242
4195.963,0.29149465
4201.026,0.2962139
4206.102,0.30342301
4211.19,0.31285981
4216.291,0.32348053
4221.404,0.33393913
4226.529,0.34313999
4231.666,0.35070852
4236.816,0.3557805
4241.979,0.35623056
4247.154,0.35077987
4252.341,0.33777262
4257.542,0.3276977
4262.754,0.33149485
4267.98,0.34245913
4273.219,0.34638115
4278.47,0.34561458
4283.734,0.34516107
4289.011,0.34565845
4294.301,0.34504743
4299.604,0.34278905
4304.92,0.34116767
4310.25,0.33864236
4315.592,0.33405604
4320.948,0.33016139
4326.317,0.3275866
4331.699,0.3247713
4337.095,0.32181883
4342.504,0.31955879
4347.926,0.31823943
4353.362,0.31756209
4358.811,0.31715308
4364.275,0.31680223
4369.751,0.31644583
4375.242,0.31628536
4380.746,0.31666127
4386.264,0.31762537
4391.796,0.3187736
4397.342,0.31996396
4402.902,0.32121402
4408.476,0.3223177
4414.064,0.32333752
4419.666,0.32437706
4425.282,0.3253005
4430.913,0.3262298
4436.558,0.327281
4442.217,0.3282318
4447.891,0.32916523
4453.579,0.3303559
4459.281,0.33157967
4464.998,0.33267171
4470.73,0.33386798
4476.477,0.33512064
4482.238,0.33642077
4488.014,0.33781644
4493.805,0.33912383
4499.611,0.34040297
4505.431,0.34176216
4511.267,0.34320473
4517.118,0.3446963
4522.984,0.3461081
4528.865,0.34753315
4534.762,0.34906749
4540.674,0.35054074
4546.601,0.35181926
4552.543,0.35302565
4558.502,0.3543184
4564.475,0.35564478
4570.465,0.35704221
4576.47,0.35844988
4582.491,0.35978722
4588.527,0.36114391
4594.58,0.36253935
4600.648,0.36398145
4606.732,0.36543272
4612.833,0.36678704
4618.949,0.36813094
4625.082,0.36967777
4631.231,0.37107694
4637.397,0.37227702
4643.578,0.37364191
4649.777,0.37494142
4655.991,0.37627014
4662.223,0.37777522
4668.471,0.37928512
4674.735,0.3808639
4681.017,0.3824014
4687.315,0.38389053
4693.63,0.38560289
4699.962,0.38759483
4706.312,0.38963863
4712.678,0.39153762
4719.062,0.39357314
4725.463,0.39585947
4731.881,0.39783451
4738.316,0.39958584
4744.769,0.40160173
4751.24,0.40364769
4757.728,0.40557781
4764.234,0.40752793
4770.758,0.40951935
4777.299,0.41185711
4783.859,0.41438766
4790.436,0.4162528
4797.032,0.41767752
4803.645,0.41941327
4810.277,0.42134807
4816.927,0.42321591
4823.596,0.42498736
4830.283,0.42670242
4836.988,0.42913252
4843.712,0.4314316
4850.455,0.43239368
4857.216,0.43348885
4863.996,0.43507651
4870.795,0.4364827
4877.613,0.43783144
4884.451,0.43928512
4891.307,0.44107495
4898.182,0.44265974
4905.077,0.4431579
4911.991,0.44337032
4918.925,0.4441285
4925.878,0.4453062
4932.851,0.44689675
4939.844,0.44839892
4946.856,0.45040433
4953.888,0.45367318
4960.941,0.45490194
4968.013,0.45363337
4975.105,0.45363467
4982.218,0.45471003
4989.351,0.4555574
4996.504,0.45682126
5003.678,0.45819788
5010.872,0.46130499
5018.087,0.46672252
5025.323,0.46842513
5032.58,0.46682647
5039.857,0.46699505
5047.156,0.46867513
5054.475,0.47076374
5061.816,0.47275912
5069.179,0.47484734
5076.562,0.47946218
5083.967,0.48388625
5091.394,0.48377758
5098.842,0.48376266
5106.312,0.48592723
5113.804,0.4878724
5121.318,0.48924748
5128.854,0.49086985
5136.412,0.49538936
5143.992,0.5027568
5151.595,0.50350157
5159.22,0.49905029
5166.868,0.49910759
5174.538,0.50131574
5182.231,0.50251412
5189.947,0.50641005
5197.686,0.5132903
5205.448,0.51874619
5213.233,0.52050831
5221.041,0.5160607
5228.873,0.51435683
5236.728,0.5174871
5244.607,0.51644907
5252.51,0.51457623
5260.436,0.5149539
5268.386,0.51775656
5276.36,0.52101021
5284.358,0.52491632
5292.381,0.52827109
5300.428,0.52525922
5308.499,0.52264236
5316.595,0.52376046
5324.715,0.52502072
5332.86,0.52674872
5341.031,0.53813201
5349.226,0.55437431
5357.446,0.54986789
5365.692,0.5389844
5373.962,0.53926546
5382.259,0.5416549
5390.581,0.54346724
5398.928,0.54741021
5407.302,0.55691939
5415.701,0.57482669
5424.127,0.58112688
5432.579,0.56835982
5441.057,0.56332403
5449.561,0.56755461
5458.092,0.57861594
5466.65,0.59021492
5475.234,0.58659437
5483.846,0.5765091
5492.484,0.56688483
5501.15,0.56329951
5509.843,0.56339565
5518.564,0.56429934
5527.312,0.55860565
5536.087,0.54697055
5544.891,0.54260158
5553.723,0.53066625
5562.582,0.49459186
5571.47,0.48779934
5580.387,0.56022758
5589.332,0.61592564
5598.305,0.6315003
5607.307,0.63111561
5616.339,0.62977054
5625.399,0.63011549
5634.489,0.64332664
5643.607,0.65222334
5652.756,0.63888837
5661.934,0.62770527
5671.142,0.63215703
5680.379,0.63749299
5689.647,0.63521765
5698.945,0.63775802
5708.274,0.65339064
5717.633,0.65911792
5727.022,0.65012389
5736.443,0.64952595
5745.894,0.65163197
5755.377,0.66094368
5764.89,0.6762929
5774.436,0.6629694
5784.012,0.64152534
5793.621,0.63465542
5803.262,0.64153097
5812.934,0.66897743
5822.639,0.68980668
5832.376,0.66852879
5842.146,0.65030114
5851.948,0.658263
5861.783,0.67461848
5871.652,0.69490533
5881.553,0.71392804
5891.488,0.70216865
5901.457,0.67234138
5911.459,0.66020606
5921.495,0.67676166
5931.565,0.70863651
5941.67,0.70151957
5951.809,0.6772731
5961.982,0.68075922
5972.19,0.69118679
5982.433,0.69699535
5992.711,0.68798953
6003.025,0.67833306
6013.374,0.67980966
6023.759,0.67457508
6034.179,0.69816872
6044.636,0.73896159
6055.129,0.7298136
6065.658,0.72316441
6076.224,0.71095756
6086.826,0.68792509
6097.466,0.70164716
6108.143,0.72871501
6118.857,0.71265482
6129.609,0.69509896
6140.398,0.70406124
6151.226,0.71491387
6162.091,0.71323285
6172.996,0.71737131
6183.938,0.72276088
6194.92,0.71031338
6205.94,0.70597867
6217.0,0.70873926
6228.099,0.7083485
6239.237,0.70819538
6250.416,0.70806781
6261.635,0.71135678
6272.893,0.71404779
6284.193,0.7139434
6295.533,0.71495277
6306.914,0.71705178
6318.336,0.72099816
6329.799,0.73807813
6341.304,0.75066588
6352.851,0.745658
6364.44,0.7506203
6376.071,0.75023805
6387.745,0.74786928
6399.461,0.77900421
6411.221,0.81329367
6423.023,0.7893495
6434.869,0.76462237
6446.759,0.75921127
6458.693,0.76494119
6470.671,0.79107199
6482.693,0.81960245
6494.76,0.8038151
6506.872,0.78315277
6519.029,0.77956167
6531.231,0.77596086
6543.48,0.78422503
6555.774,0.80248523
6568.114,0.81336126
6580.501,0.80930978
6592.934,0.79699154
6605.415,0.79184884
6617.943,0.81360625
6630.518,0.83239379
6643.141,0.80109599
6655.812,0.78471648
6668.532,0.79508869
6681.3,0.79160429
6694.117,0.79117829
6706.983,0.80389881
6719.899,0.7955654
6732.864,0.78055638
6745.879,0.77959085
6758.945,0.78905475
6772.062,0.80887025
6785.229,0.81400407
6798.448,0.79598566
6811.718,0.79260109
6825.039,0.79552294
6838.413,0.80329968
6851.84,0.8271365
6865.319,0.81988516
6878.851,0.79732609
6892.437,0.79593142
6906.076,0.79601174
6919.769,0.7897987
6933.517,0.79345309
6947.319,0.80880183
6961.176,0.8110281
6975.089,0.80402452
6989.057,0.80313231
7003.081,0.8030156
7017.161,0.80788318
7031.298,0.82048522
7045.492,0.82248097
7059.743,0.81012778
7074.052,0.80439525
7088.419,0.80627538
7102.845,0.8102914
7117.329,0.81305609
7131.872,0.8180978
7146.475,0.8272869
7161.137,0.8273993
7175.86,0.8202032
7190.643,0.82143707
7205.487,0.82346184
7220.393,0.81905279
7235.36,0.8188447
7250.39,0.82439638
7265.481,0.82965379
7280.636,0.82826786
7295.854,0.82531687
7311.135,0.82879991
7326.481,0.83559815
7341.891,0.83441862
7357.366,0.82934114
7372.906,0.82893429
7388.512,0.82969077
7404.184,0.83047534
7419.922,0.83120818
7435.728,0.8353535
7451.601,0.84290642
7467.541,0.84306097
7483.55,0.83791985
7499.628,0.83681938
7515.774,0.83801479
7531.99,0.83892515
7548.277,0.84094004
7564.633,0.84424887
7581.061,0.84607785
7597.56,0.84634881
7614.131,0.84615368
7630.774,0.84587508
7647.491,0.84647395
7664.28,0.84737918
7681.143,0.84840339
7698.08,0.84965435
7715.093,0.85083878
7732.18,0.85233138
7749.343,0.85373091
7766.583,0.85419992
7783.899,0.85470255
7801.292,0.85578631
7818.764,0.85692841
7836.313,0.85849713
7853.942,0.86028947
7871.649,0.86152677
7889.437,0.8626373
7907.305,0.8642639
7925.254,0.86581036
7943.285,0.86650076
7961.398,0.86684582
7979.594,0.86758505
7997.872,0.8688168
8016.235,0.87022689
8034.682,0.87127436
8053.214,0.87215677
8071.832,0.87329096
8090.535,0.87438065
8109.326,0.87550541
8128.204,0.87668665
8147.169,0.87760482
8166.224,0.87846017
8185.368,0.87942993
8204.601,0.88027756
8223.925,0.88104083
8243.34,0.88186017
8262.847,0.88255592
8282.446,0.88324101
8302.139,0.88399029
8321.925,0.88470285
8341.805,0.8854831
8361.781,0.88637556
8381.852,0.88728246
8402.02,0.88817878
8422.285,0.88901799
8442.648,0.88963635
8463.109,0.89008204
8483.67,0.890492
8504.331,0.89090653
8525.092,0.89144219
8545.955,0.89211434
8566.921,0.89279591
8587.989,0.89340843
8609.161,0.89395636
8630.437,0.8946629
8651.819,0.89549726
8673.307,0.89619152
8694.902,0.89688126
8716.604,0.89761582
8738.415,0.89833052
8760.335,0.89916525
8782.365,0.89998345
8804.507,0.90055908
8826.76,0.90125055
8849.125,0.90235049
8871.604,0.90328155
8894.198,0.9037735
8916.907,0.90423537
8939.732,0.90487203
8962.673,0.90553739
8985.733,0.9059909
9008.912,0.90638775
9032.21,0.90677173
9055.629,0.90703249
9079.17,0.90739889
9102.833,0.90793965
9126.62,0.90838305
9150.531,0.90860359
9174.568,0.90862238
9198.731,0.90852013
9223.022,0.90857193
9247.441,0.90877814
9271.99,0.90901621
9296.669,0.90925847
9321.48,0.90955215
9346.423,0.91002094
9371.5,0.91037585
9396.712,0.91069515
9422.06,0.91128888
9447.545,0.91191395
9473.167,0.91245115
9498.929,0.91285589
9524.832,0.91320897
9550.876,0.91357729
9577.062,0.91390378
9603.393,0.91433314
9629.868,0.9147376
9656.49,0.91494099
9683.259,0.91504158
9710.176,0.91530316
9737.244,0.91582177
9764.463,0.91625985
9791.834,0.91662014
9819.359,0.91714057
9847.039,0.91758974
9874.875,0.91779627
9902.869,0.91801783
9931.022,0.91844324
9959.336,0.91889538
9987.811,0.91926079
10016.449,0.9195682
10045.252,0.91991256
10074.221,0.92049848
10103.357,0.92114531
10132.662,0.92168243
10162.137,0.92230428
10191.784,0.92298243
10221.604,0.92347895
10251.6,0.9238521
10281.771,0.92434051
10312.121,0.92482121
10342.65,0.92518444
10373.36,0.92555562
10404.253,0.925939
10435.331,0.92630157
10466.594,0.9265991
10498.045,0.92676507
10529.686,0.92695044
10561.517,0.92724787
10593.542,0.92748887
10625.761,0.92767964
10658.176,0.92792114
10690.79,0.92827509
10723.604,0.92865487
10756.619,0.92895243
10789.839,0.92920859
10823.264,0.92939571
10856.896,0.92954966
10890.738,0.92973855
10924.791,0.92995329
10959.058,0.93012396
10993.541,0.93017841
11028.24,0.93025428
11063.16,0.9304742
11098.301,0.93069101
11133.665,0.93074914
11169.256,0.93076406
11205.075,0.93082442
11241.124,0.93108292
11277.405,0.93146114
11313.921,0.93155416
11350.675,0.93156542
11387.667,0.93176571
11424.901,0.93217136
11462.38,0.93263636
11500.105,0.93302864
11538.079,0.93336523
11576.304,0.93372534
11614.783,0.93438189
11653.518,0.93511444
11692.513,0.93560826
11731.769,0.93600628
11771.29,0.93662162
11811.077,0.9372007
11851.134,0.93745562
11891.464,0.93789759
11932.068,0.93845861
11972.951,0.93878194
12014.114,0.93895232
12055.562,0.93912599
12097.296,0.93924375
12139.32,0.93917747
12181.636,0.93916316
12224.249,0.93929026
12267.16,0.9394687
12310.373,0.93964186
12353.892,0.93985623
12397.719,0.94033913
12441.859,0.9408221
12486.313,0.94106349
12531.086,0.94114238
12576.18,0.94112139
12621.601,0.94126283
12667.35,0.9414644
12713.432,0.94163296
12759.85,0.94196844
12806.608,0.94236506
12853.71,0.94274724
12901.159,0.94328673
12948.96,0.94387473
12997.116,0.94428709
13045.631,0.94462985
13094.51,0.94499468
13143.756,0.94518719
13193.373,0.94522135
13243.366,0.94526816
13293.74,0.94526619
13344.497,0.94531792
13395.644,0.94546588
13447.183,0.94552939
13499.121,0.94567691
13551.461,0.94576054
13604.208,0.94574439
13657.367,0.94622368
13710.943,0.94652362
13764.941,0.94637104
13819.365,0.94694007
13874.221,0.94751307
13929.515,0.9472694
13985.25,0.94717951
14041.433,0.94761997
14098.068,0.94805802
14155.163,0.94806669
14212.721,0.94780789
14270.749,0.94794908
14329.252,0.94861865
14388.237,0.94887258
14447.709,0.94885954
14507.674,0.9488713
14568.139,0.94813388
14629.109,0.9473216
14690.592,0.94630733
14752.594,0.9442726
14815.121,0.94227819
14878.179,0.94422215
14941.777,0.94679188
15005.92,0.93967715
15070.616,0.93097828
15135.871,0.92759114
15201.695,0.92363108
15268.092,0.91679827
15335.072,0.90838296
15402.642,0.89820857
15470.81,0.88617641
15539.583,0.87107836
15608.97,0.85023756
15678.979,0.82281958
15749.619,0.78930396
15820.897,0.75654098
15892.824,0.72126152
15965.407,0.67941373
