Database of Origin,University of Winnipeg Spectrophotometer Facility
Sample Description,Basalts and Igneous Samples -  D and P 102F FTIR spectra (PSF)
Date Added,2018-07-23 23:07:15.232073

Data ID,FTIR_BAS_11_1       
Sample ID,SA-14B
Mineral Name,Basalt
Locality,Whitman County WA
Grain Size,45-90 um
Viewing Geometry,35/0

Wavelength
2001.142,0.24514965
2002.307,0.24487271
2003.474,0.24461094
2004.643,0.24460813
2005.812,0.24473756
2006.983,0.24484048
2008.155,0.24465317
2009.329,0.24434114
2010.504,0.24430447
2011.68,0.24443364
2012.858,0.24454342
2014.037,0.24433315
2015.217,0.24396435
2016.399,0.24378165
2017.582,0.24358945
2018.766,0.24358431
2019.952,0.24369126
2021.139,0.24359375
2022.328,0.24353511
2023.518,0.24353461
2024.709,0.24361393
2025.902,0.24399397
2027.096,0.24431019
2028.291,0.24398885
2029.488,0.24347078
2030.686,0.2432099
2031.886,0.24335881
2033.087,0.24368576
2034.289,0.24375774
2035.493,0.24379412
2036.698,0.24380808
2037.905,0.24396444
2039.113,0.2443481
2040.322,0.24440863
2041.533,0.24427334
2042.746,0.24442636
2043.959,0.24439715
2045.174,0.24387291
2046.391,0.24368207
2047.609,0.24400921
2048.828,0.24430294
2050.049,0.24441673
2051.271,0.24427997
2052.495,0.24418053
2053.72,0.24431554
2054.947,0.24454152
2056.175,0.24479793
2057.404,0.2449364
2058.635,0.24477441
2059.867,0.24455432
2061.101,0.24462196
2062.336,0.24476271
2063.573,0.24503707
2064.811,0.24527584
2066.051,0.24517136
2067.292,0.24509717
2068.534,0.24505302
2069.778,0.24518034
2071.024,0.24555973
2072.271,0.2457172
2073.519,0.24587789
2074.769,0.24602605
2076.02,0.24554693
2077.273,0.24516774
2078.528,0.24555103
2079.784,0.2460023
2081.041,0.24611779
2082.3,0.24594262
2083.56,0.24569773
2084.822,0.24573139
2086.085,0.24600544
2087.35,0.24611975
2088.617,0.24615533
2089.885,0.24630995
2091.154,0.24635816
2092.425,0.24625068
2093.697,0.2462052
2094.971,0.24649122
2096.247,0.24685214
2097.524,0.24680829
2098.803,0.24655172
2100.083,0.24656614
2101.364,0.24664102
2102.648,0.24642524
2103.932,0.24644844
2105.219,0.24682105
2106.506,0.24691435
2107.796,0.24654707
2109.087,0.24617506
2110.379,0.24606983
2111.673,0.24609473
2112.969,0.24607584
2114.266,0.24606341
2115.565,0.24622822
2116.865,0.24651337
2118.167,0.24688099
2119.471,0.24704735
2120.776,0.24680958
2122.082,0.24665122
2123.391,0.24680238
2124.7,0.24720268
2126.012,0.24774036
2127.325,0.24792758
2128.64,0.2479495
2129.956,0.24807125
2131.274,0.24801298
2132.593,0.24788985
2133.914,0.24784928
2135.237,0.24763685
2136.561,0.24741355
2137.887,0.24763322
2139.214,0.24799436
2140.544,0.24814983
2141.874,0.24811869
2143.207,0.24787802
2144.541,0.24776462
2145.876,0.24801053
2147.214,0.24828624
2148.553,0.24850046
2149.893,0.2486507
2151.235,0.24854434
2152.579,0.24845697
2153.925,0.24877179
2155.272,0.24893871
2156.621,0.24880286
2157.972,0.24899129
2159.324,0.24933298
2160.678,0.24971318
2162.033,0.25031202
2163.39,0.2507183
2164.749,0.25061626
2166.11,0.25051127
2167.472,0.25073095
2168.836,0.25094337
2170.202,0.25089616
2171.569,0.25087823
2172.938,0.2511485
2174.309,0.25138157
2175.682,0.25141969
2177.056,0.25146483
2178.432,0.25171669
2179.809,0.25199205
2181.189,0.25207057
2182.57,0.2521327
2183.952,0.25233669
2185.337,0.25255634
2186.723,0.25279679
2188.111,0.2529897
2189.501,0.25313579
2190.892,0.25341295
2192.285,0.2535591
2193.68,0.25357939
2195.077,0.25371533
2196.476,0.2540187
2197.876,0.25390004
2199.278,0.25360183
2200.682,0.25392526
2202.087,0.25422245
2203.494,0.25428282
2204.903,0.25440708
2206.314,0.2545465
2207.727,0.25474064
2209.141,0.25487771
2210.557,0.25480735
2211.975,0.2545506
2213.395,0.25414185
2214.817,0.25405033
2216.24,0.25458339
2217.665,0.25492776
2219.092,0.25475837
2220.521,0.25475681
2221.952,0.25478287
2223.384,0.25437328
2224.818,0.25446627
2226.254,0.2549433
2227.692,0.25465452
2229.132,0.25422431
2230.574,0.25414593
2232.017,0.25407563
2233.462,0.25391818
2234.91,0.25380578
2236.359,0.25354273
2237.809,0.25331136
2239.262,0.25351594
2240.717,0.25358649
2242.173,0.25361394
2243.631,0.25372486
2245.092,0.25348617
2246.554,0.25324631
2248.017,0.25310111
2249.483,0.25292353
2250.951,0.25317604
2252.421,0.25345739
2253.892,0.25334545
2255.365,0.25338443
2256.841,0.2535242
2258.318,0.25348358
2259.797,0.25353055
2261.278,0.25361182
2262.761,0.253569
2264.246,0.25353751
2265.732,0.25350154
2267.221,0.2535983
2268.712,0.25374151
2270.204,0.25380296
2271.699,0.25376142
2273.195,0.25349131
2274.694,0.2531336
2276.194,0.25296557
2277.696,0.25305576
2279.201,0.25319268
2280.707,0.25316002
2282.215,0.25300397
2283.725,0.25295878
2285.237,0.25305997
2286.752,0.25316314
2288.268,0.25318652
2289.786,0.2530989
2291.306,0.25294594
2292.828,0.25300962
2294.352,0.25329594
2295.878,0.25342246
2297.406,0.25329204
2298.936,0.25310889
2300.468,0.25315756
2302.002,0.2534301
2303.539,0.25389672
2305.077,0.25440749
2306.617,0.25465249
2308.159,0.25474443
2309.703,0.25487645
2311.25,0.25500073
2312.798,0.25509492
2314.348,0.25539101
2315.901,0.25566291
2317.455,0.25558003
2319.012,0.25546884
2320.571,0.25564648
2322.131,0.2559205
2323.694,0.25598935
2325.259,0.25605636
2326.826,0.25618399
2328.395,0.25628887
2329.966,0.25641103
2331.54,0.25640972
2333.115,0.25661091
2334.692,0.25692685
2336.272,0.25694659
2337.854,0.25695997
2339.437,0.25690718
2341.023,0.25694676
2342.611,0.25733424
2344.201,0.25743891
2345.794,0.25719777
2347.388,0.25729669
2348.985,0.25747245
2350.583,0.25747663
2352.184,0.25752602
2353.787,0.2575369
2355.393,0.25770222
2357.0,0.25789511
2358.609,0.25791994
2360.221,0.25789109
2361.835,0.25792494
2363.451,0.25810767
2365.069,0.25818767
2366.69,0.25812987
2368.312,0.25817139
2369.937,0.25808013
2371.564,0.25797007
2373.194,0.2582335
2374.825,0.25841346
2376.459,0.25837307
2378.095,0.2582804
2379.733,0.2581415
2381.373,0.25816187
2383.016,0.25829535
2384.661,0.25839915
2386.308,0.25831675
2387.957,0.25828855
2389.609,0.25854774
2391.263,0.25877761
2392.919,0.25884665
2394.577,0.25883987
2396.238,0.25882986
2397.901,0.25870875
2399.566,0.25851508
2401.233,0.25870439
2402.903,0.25918766
2404.575,0.25935352
2406.25,0.25917784
2407.926,0.25914465
2409.606,0.25931007
2411.287,0.25943086
2412.971,0.25952115
2414.657,0.25968034
2416.345,0.26005849
2418.036,0.26018626
2419.729,0.26009925
2421.424,0.26047413
2423.122,0.26076654
2424.822,0.2606699
2426.524,0.26061683
2428.229,0.2607281
2429.936,0.26088876
2431.646,0.26108958
2433.358,0.26151227
2435.072,0.26189629
2436.789,0.26167766
2438.508,0.26128926
2440.229,0.26124589
2441.953,0.26121985
2443.679,0.26140684
2445.408,0.26185262
2447.139,0.26215719
2448.873,0.26236804
2450.609,0.26246272
2452.347,0.26258757
2454.088,0.26266004
2455.831,0.2625165
2457.577,0.26252357
2459.325,0.26276709
2461.076,0.26306355
2462.829,0.26324318
2464.585,0.2633552
2466.343,0.26338147
2468.104,0.26328504
2469.867,0.26366047
2471.632,0.26414499
2473.4,0.26398631
2475.171,0.26384474
2476.944,0.26406691
2478.72,0.26427669
2480.498,0.26427446
2482.278,0.26438402
2484.062,0.26456311
2485.847,0.26467692
2487.636,0.26492381
2489.427,0.26497184
2491.22,0.2650724
2493.016,0.2654725
2494.814,0.26565934
2496.615,0.2655929
2498.419,0.26558251
2500.225,0.26583266
2502.034,0.26651833
2503.845,0.26735014
2505.659,0.26725658
2507.476,0.26658076
2509.295,0.26679194
2511.117,0.26753185
2512.942,0.26850814
2514.769,0.26943782
2516.598,0.26958088
2518.431,0.26926652
2520.266,0.26909354
2522.103,0.27019672
2523.944,0.27112175
2525.787,0.27049756
2527.632,0.27015179
2529.48,0.27243642
2531.331,0.27568133
2533.185,0.27643466
2535.041,0.27674141
2536.9,0.27480653
2538.762,0.27176219
2540.627,0.27510312
2542.494,0.28007702
2544.364,0.27835004
2546.236,0.27747985
2548.112,0.27909187
2549.99,0.2818317
2551.87,0.28437942
2553.754,0.27903069
2555.64,0.27285438
2557.529,0.27517624
2559.421,0.2902584
2561.316,0.31034818
2563.213,0.3093548
2565.113,0.29071603
2567.016,0.28431902
2568.922,0.28988701
2570.831,0.29265152
2572.742,0.29696948
2574.656,0.29971054
2576.573,0.29494389
2578.493,0.28842054
2580.416,0.29228373
2582.342,0.30728814
2584.27,0.31069539
2586.201,0.30528051
2588.135,0.30028915
2590.072,0.2908789
2592.012,0.3047302
2593.955,0.35850462
2595.9,0.34232676
2597.849,0.29351533
2599.8,0.28597654
2601.755,0.29962278
2603.712,0.3199555
2605.672,0.32679116
2607.635,0.31063391
2609.601,0.29698595
2611.57,0.29062983
2613.542,0.29381353
2615.517,0.31121145
2617.495,0.32299806
2619.475,0.31759613
2621.459,0.2994299
2623.446,0.28710689
2625.435,0.29600765
2627.428,0.30871419
2629.424,0.31768812
2631.423,0.31569631
2633.424,0.29964887
2635.429,0.28772325
2637.437,0.28185425
2639.447,0.28262366
2641.461,0.28535647
2643.478,0.28831431
2645.498,0.29156919
2647.521,0.28704759
2649.547,0.28494495
2651.576,0.29408688
2653.609,0.29941626
2655.644,0.29420358
2657.682,0.29318688
2659.724,0.2989139
2661.768,0.30241788
2663.816,0.32345088
2665.867,0.35727932
2667.921,0.35925716
2669.978,0.35936218
2672.038,0.33169847
2674.102,0.31419189
2676.168,0.33810772
2678.238,0.3428127
2680.311,0.31098483
2682.387,0.29863552
2684.467,0.30170086
2686.549,0.2988157
2688.635,0.28839027
2690.724,0.28566766
2692.816,0.30280033
2694.911,0.3131176
2697.01,0.2901763
2699.112,0.27841083
2701.217,0.28100451
2703.325,0.27625964
2705.437,0.27091327
2707.552,0.28185965
2709.67,0.30919029
2711.791,0.30434647
2713.916,0.27287802
2716.044,0.26170917
2718.175,0.27949435
2720.31,0.31150966
2722.448,0.30810501
2724.589,0.28671766
2726.734,0.25368205
2728.882,0.2266526
2731.034,0.21736577
2733.188,0.21832559
2735.347,0.21861904
2737.508,0.2215245
2739.673,0.24329056
2741.841,0.22991964
2744.013,0.19223506
2746.188,0.17700189
2748.367,0.17279965
2750.549,0.17105175
2752.734,0.17670254
2754.923,0.19467648
2757.115,0.1870633
2759.311,0.16602543
2761.51,0.16744233
2763.713,0.17439155
2765.919,0.17002017
2768.129,0.1687746
2770.342,0.17088302
2772.559,0.16462569
2774.779,0.1560611
2777.003,0.15451069
2779.23,0.15652356
2781.461,0.15756401
2783.696,0.1568359
2785.934,0.16240167
2788.175,0.1668179
2790.42,0.1558603
2792.669,0.148518
2794.922,0.14765501
2797.178,0.14704036
2799.437,0.14768755
2801.7,0.15741512
2803.967,0.16832987
2806.238,0.15978099
2808.512,0.15141308
2810.789,0.14961139
2813.071,0.15114371
2815.356,0.15465176
2817.645,0.1582065
2819.937,0.16291747
2822.233,0.16235238
2824.533,0.15897646
2826.837,0.16004626
2829.144,0.16150294
2831.455,0.16262454
2833.77,0.16630761
2836.089,0.16978085
2838.411,0.16960152
2840.737,0.16666626
2843.067,0.16480603
2845.401,0.16465061
2847.739,0.16583088
2850.08,0.16693591
2852.425,0.16765529
2854.774,0.16949576
2857.127,0.1680313
2859.484,0.16547837
2861.844,0.16512096
2864.209,0.16461693
2866.577,0.16428629
2868.949,0.16414179
2871.325,0.16490535
2873.705,0.16499175
2876.089,0.16326526
2878.477,0.1624291
2880.869,0.16202325
2883.265,0.16145151
2885.664,0.16137487
2888.068,0.162276
2890.476,0.16284481
2892.887,0.16127179
2895.303,0.15932598
2897.723,0.15873638
2900.146,0.15988541
2902.574,0.16079097
2905.006,0.15949368
2907.441,0.15795873
2909.881,0.15719962
2912.325,0.15660611
2914.773,0.15700342
2917.225,0.15784913
2919.681,0.15715894
2922.142,0.15648254
2924.606,0.1559987
2927.075,0.15435048
2929.547,0.15309578
2932.024,0.15251671
2934.505,0.15243694
2936.99,0.15304889
2939.479,0.15311738
2941.973,0.15262662
2944.471,0.15346888
2946.973,0.15537037
2949.479,0.1544798
2951.989,0.15234765
2954.504,0.15300241
2957.023,0.15283551
2959.546,0.15065093
2962.073,0.14975819
2964.605,0.15012292
2967.141,0.15059004
2969.681,0.15073009
2972.226,0.15163288
2974.775,0.15372403
2977.328,0.15372274
2979.886,0.15153876
2982.448,0.15056563
2985.015,0.15063806
2987.586,0.15075163
2990.161,0.15191576
2992.74,0.15258759
2995.324,0.15181089
2997.913,0.15200267
3000.506,0.15319713
3003.103,0.15389088
3005.705,0.15339362
3008.312,0.15266473
3010.922,0.15299217
3013.538,0.15386703
3016.158,0.15411258
3018.782,0.15382337
3021.411,0.15388703
3024.044,0.15415452
3026.683,0.15461331
3029.325,0.15648818
3031.972,0.15894595
3034.624,0.15857547
3037.281,0.15660758
3039.942,0.1565726
3042.607,0.15783136
3045.278,0.15842951
3047.953,0.1577325
3050.632,0.15724484
3053.317,0.15764127
3056.006,0.1575802
3058.7,0.15746282
3061.398,0.15843323
3064.101,0.15986357
3066.809,0.1600484
3069.522,0.15911654
3072.239,0.1585959
3074.962,0.15873049
3077.689,0.15922797
3080.421,0.15977935
3083.157,0.16015811
3085.899,0.16080836
3088.645,0.16128873
3091.396,0.16108487
3094.153,0.16102746
3096.914,0.16181745
3099.679,0.16350403
3102.45,0.16402829
3105.226,0.16308326
3108.007,0.16312677
3110.792,0.16403015
3113.583,0.16447099
3116.378,0.16459361
3119.179,0.16508451
3121.985,0.16565626
3124.795,0.16632255
3127.611,0.16742699
3130.431,0.16827115
3133.257,0.16866413
3136.088,0.16908093
3138.924,0.16969468
3141.765,0.17042561
3144.611,0.17121761
3147.462,0.17201201
3150.319,0.17266512
3153.18,0.17327859
3156.047,0.17392924
3158.919,0.17464198
3161.796,0.17547129
3164.678,0.17625782
3167.566,0.17703945
3170.458,0.17796421
3173.356,0.17880891
3176.26,0.18000715
3179.168,0.18231725
3182.082,0.18380629
3185.001,0.18331952
3187.926,0.18309954
3190.856,0.18446757
3193.791,0.18655036
3196.731,0.18729013
3199.677,0.18728097
3202.629,0.18838426
3205.585,0.18948276
3208.548,0.19016494
3211.515,0.19222153
3214.488,0.19537171
3217.467,0.19679723
3220.451,0.1957361
3223.441,0.19535043
3226.436,0.19624098
3229.437,0.19631126
3232.443,0.19659887
3235.455,0.197326
3238.472,0.19769805
3241.495,0.19882945
3244.523,0.20064019
3247.558,0.20202136
3250.598,0.20335495
3253.643,0.2050512
3256.694,0.20658823
3259.751,0.20649136
3262.814,0.20537105
3265.882,0.20576743
3268.956,0.20740343
3272.036,0.20829012
3275.122,0.20819999
3278.213,0.20866078
3281.31,0.20982425
3284.413,0.21103472
3287.522,0.21205024
3290.637,0.21292911
3293.757,0.21474875
3296.884,0.21658201
3300.016,0.21660404
3303.155,0.21671671
3306.299,0.21772495
3309.449,0.2179363
3312.605,0.21826124
3315.767,0.21946187
3318.936,0.2204415
3322.11,0.2215114
3325.29,0.22369999
3328.476,0.2259512
3331.669,0.22595258
3334.867,0.22466279
3338.072,0.2246037
3341.282,0.22565384
3344.499,0.22717676
3347.722,0.22884095
3350.952,0.23032564
3354.187,0.23091816
3357.429,0.23100096
3360.677,0.23245135
3363.931,0.23492524
3367.191,0.23663002
3370.458,0.23766241
3373.731,0.23843444
3377.01,0.23864273
3380.296,0.2389616
3383.588,0.23956771
3386.886,0.24001919
3390.191,0.24036092
3393.502,0.2412937
3396.82,0.24276605
3400.144,0.24395152
3403.475,0.24557959
3406.812,0.24710243
3410.156,0.24717404
3413.506,0.2471583
3416.862,0.24807681
3420.226,0.24985122
3423.596,0.2517013
3426.972,0.25225521
3430.355,0.25225887
3433.745,0.25272474
3437.141,0.25388257
3440.545,0.25594372
3443.954,0.25701629
3447.371,0.25605707
3450.794,0.25535266
3454.224,0.25579382
3457.661,0.2564097
3461.105,0.25737142
3464.556,0.25840203
3468.013,0.25875696
3471.477,0.25915115
3474.948,0.25996471
3478.426,0.26080211
3481.911,0.26149662
3485.403,0.26233541
3488.902,0.26436837
3492.408,0.26603985
3495.921,0.26593327
3499.441,0.2661637
3502.968,0.26741933
3506.502,0.2689312
3510.043,0.26989325
3513.592,0.27005941
3517.147,0.27021056
3520.71,0.27079216
3524.28,0.27155498
3527.857,0.27216855
3531.441,0.27362891
3535.032,0.2752712
3538.631,0.27546175
3542.237,0.27538321
3545.851,0.27582526
3549.471,0.2764495
3553.099,0.27737659
3556.735,0.27838862
3560.378,0.27915905
3564.028,0.27977694
3567.686,0.28068955
3571.351,0.28163326
3575.024,0.28217247
3578.704,0.28280133
3582.392,0.2839643
3586.088,0.28497114
3589.791,0.28527859
3593.501,0.28605403
3597.22,0.28725942
3600.946,0.28757794
3604.679,0.28770784
3608.421,0.28836522
3612.17,0.28949385
3615.926,0.29080103
3619.691,0.2913946
3623.463,0.29172381
3627.244,0.2923539
3631.032,0.29296947
3634.828,0.29359662
3638.632,0.29420692
3642.444,0.2947972
3646.263,0.29574016
3650.091,0.29701284
3653.927,0.29763137
3657.771,0.29761611
3661.623,0.29815115
3665.483,0.29910337
3669.351,0.2997904
3673.227,0.3003812
3677.111,0.30133454
3681.004,0.30246608
3684.905,0.30313536
3688.814,0.30347912
3692.731,0.30392464
3696.656,0.30459831
3700.59,0.30549136
3704.532,0.30634849
3708.483,0.30702497
3712.442,0.30775701
3716.409,0.30856906
3720.385,0.3092459
3724.37,0.30994538
3728.362,0.3107704
3732.364,0.31153938
3736.374,0.31221121
3740.392,0.3131426
3744.419,0.3142898
3748.455,0.31508773
3752.499,0.31557579
3756.553,0.31599977
3760.614,0.31646502
3764.685,0.31708552
3768.764,0.31775287
3772.853,0.31844475
3776.95,0.31918369
3781.056,0.31993185
3785.17,0.32066501
3789.294,0.32131388
3793.427,0.32203345
3797.568,0.32284496
3801.719,0.32362727
3805.879,0.32437649
3810.048,0.32498525
3814.225,0.32548578
3818.412,0.32601063
3822.609,0.32668632
3826.814,0.3273795
3831.029,0.32801452
3835.252,0.32871396
3839.486,0.3294542
3843.728,0.33017375
3847.98,0.33071809
3852.241,0.33115288
3856.512,0.33156351
3860.792,0.33202334
3865.081,0.33261143
3869.38,0.33318498
3873.689,0.3337193
3878.007,0.33425048
3882.334,0.33473055
3886.672,0.33517122
3891.019,0.33571051
3895.375,0.33632541
3899.742,0.33682871
3904.118,0.33730852
3908.504,0.33785498
3912.9,0.33835994
3917.305,0.33886409
3921.721,0.33947866
3926.146,0.3401721
3930.581,0.340728
3935.027,0.34109979
3939.482,0.34160393
3943.948,0.34233119
3948.423,0.34316176
3952.909,0.34398823
3957.405,0.3446483
3961.911,0.34537736
3966.427,0.34624057
3970.954,0.34699415
3975.491,0.34775468
3980.038,0.34847311
3984.595,0.34900415
3989.163,0.34941437
3993.742,0.34979555
3998.33,0.35034423
4002.93,0.35100628
4007.54,0.351561
4012.16,0.35197293
4016.791,0.35227303
4021.433,0.35262436
4026.086,0.35312432
4030.749,0.35372134
4035.423,0.3542673
4040.108,0.35478798
4044.804,0.3553908
4049.51,0.35600216
4054.228,0.3567509
4058.956,0.35766485
4063.695,0.35853545
4068.446,0.35931656
4073.207,0.3601799
4077.98,0.36108176
4082.764,0.36188394
4087.559,0.36279232
4092.365,0.36373758
4097.183,0.36457298
4102.012,0.36541854
4106.852,0.36627707
4111.703,0.36708728
4116.566,0.36799948
4121.441,0.36898604
4126.327,0.36980682
4131.224,0.37071826
4136.133,0.37171022
4141.054,0.37254402
4145.987,0.37341958
4150.931,0.37433009
4155.887,0.37514439
4160.854,0.37602333
4165.834,0.37712199
4170.826,0.37814777
4175.829,0.37911524
4180.844,0.38036161
4185.872,0.38191109
4190.911,0.38443495
4195.963,0.38934228
4201.026,0.39840176
4206.102,0.41344457
4211.19,0.43532422
4216.291,0.46330587
4221.404,0.49515007
4226.529,0.52721281
4231.666,0.55323988
4236.816,0.56567876
4241.979,0.55816875
4247.154,0.52904592
4252.341,0.48357275
4257.542,0.45532512
4262.754,0.46425812
4267.98,0.49367304
4273.219,0.50850384
4278.47,0.50910321
4283.734,0.50664352
4289.011,0.50404217
4294.301,0.49826606
4299.604,0.48947538
4304.92,0.48196804
4310.25,0.47309536
4315.592,0.46232361
4320.948,0.45383877
4326.317,0.44779091
4331.699,0.44228833
4337.095,0.4375219
4342.504,0.4339685
4347.926,0.4317963
4353.362,0.43061921
4358.811,0.4298087
4364.275,0.42931814
4369.751,0.42919028
4375.242,0.4292837
4380.746,0.42975479
4386.264,0.43089133
4391.796,0.43241743
4397.342,0.43395654
4402.902,0.43545398
4408.476,0.43685568
4414.064,0.43816384
4419.666,0.43947404
4425.282,0.44069418
4430.913,0.44182972
4436.558,0.44300332
4442.217,0.44425107
4447.891,0.44550172
4453.579,0.44673293
4459.281,0.44804532
4464.998,0.44939349
4470.73,0.45069135
4476.477,0.45202114
4482.238,0.45346261
4488.014,0.45488599
4493.805,0.45613949
4499.611,0.45722407
4505.431,0.45832891
4511.267,0.45961685
4517.118,0.46092911
4522.984,0.46215264
4528.865,0.46345103
4534.762,0.46479661
4540.674,0.46602823
4546.601,0.46718386
4552.543,0.46838978
4558.502,0.46962115
4564.475,0.4708166
4570.465,0.4720311
4576.47,0.47326351
4582.491,0.47446522
4588.527,0.47562835
4594.58,0.47681503
4600.648,0.47800637
4606.732,0.4790823
4612.833,0.48021733
4618.949,0.48164393
4625.082,0.48314367
4631.231,0.48448328
4637.397,0.48588132
4643.578,0.48734769
4649.777,0.48876506
4655.991,0.4902759
4662.223,0.49181159
4668.471,0.49329822
4674.735,0.4948286
4681.017,0.49635809
4687.315,0.49774082
4693.63,0.49907422
4699.962,0.50053517
4706.312,0.50212913
4712.678,0.50367527
4719.062,0.505192
4725.463,0.50699603
4731.881,0.50878307
4738.316,0.51018029
4744.769,0.51154921
4751.24,0.51313768
4757.728,0.51475685
4764.234,0.51630183
4770.758,0.51784278
4777.299,0.51960303
4783.859,0.52143067
4790.436,0.52278557
4797.032,0.52395475
4803.645,0.52531446
4810.277,0.52678093
4816.927,0.52842211
4823.596,0.53004135
4830.283,0.53152276
4836.988,0.5334694
4843.712,0.53531455
4850.455,0.53627369
4857.216,0.53729261
4863.996,0.53855958
4870.795,0.53975925
4877.613,0.54104104
4884.451,0.54238817
4891.307,0.54416856
4898.182,0.54597129
4905.077,0.54687674
4911.991,0.54762824
4918.925,0.54879781
4925.878,0.55001746
4932.851,0.55138681
4939.844,0.55273294
4946.856,0.55446856
4953.888,0.55711635
4960.941,0.5582793
4968.013,0.55786767
4975.105,0.55861921
4982.218,0.56003941
4989.351,0.56117738
4996.504,0.56247198
5003.678,0.56368204
5010.872,0.56612542
5018.087,0.57007617
5025.323,0.57116777
5032.58,0.56988036
5039.857,0.56990017
5047.156,0.57101403
5054.475,0.57237558
5061.816,0.57365554
5069.179,0.57503887
5076.562,0.57816235
5083.967,0.58105625
5091.394,0.58094681
5098.842,0.58106819
5106.312,0.58271814
5113.804,0.5842851
5121.318,0.58555272
5128.854,0.58703061
5136.412,0.59066386
5143.992,0.5963083
5151.595,0.59701858
5159.22,0.59421764
5166.868,0.59477661
5174.538,0.59669712
5182.231,0.59793949
5189.947,0.60112333
5197.686,0.60632227
5205.448,0.61111844
5213.233,0.61351299
5221.041,0.61071386
5228.873,0.6099734
5236.728,0.61312101
5244.607,0.61353146
5252.51,0.61345052
5260.436,0.61491763
5268.386,0.61796378
5276.36,0.6211955
5284.358,0.62499232
5292.381,0.62819598
5300.428,0.6268435
5308.499,0.62605974
5316.595,0.62792517
5324.715,0.62967323
5332.86,0.63182436
5341.031,0.64123305
5349.226,0.65348739
5357.446,0.65072553
5365.692,0.64429893
5373.962,0.64600806
5382.259,0.64933075
5390.581,0.65288462
5398.928,0.65896595
5407.302,0.67155356
5415.701,0.69550049
5424.127,0.7135208
5432.579,0.71623273
5441.057,0.73263922
5449.561,0.77151899
5458.092,0.83956711
5466.65,0.94403383
5475.234,0.0107041102
5483.846,0.0125189384
5492.484,0.0156940403
5501.15,0.0228940371
5509.843,0.0321377535
5518.564,0.0164486924
5527.312,0.84019317
5536.087,0.49143624
5544.891,0.28431161
5553.723,0.164818
5562.582,0.09995298
5571.47,0.07590924
5580.387,0.08459433
5589.332,0.10586291
5598.305,0.1299839
5607.307,0.15267483
5616.339,0.17347008
5625.399,0.19116113
5634.489,0.20340222
5643.607,0.21552865
5652.756,0.23169158
5661.934,0.24623505
5671.142,0.25675529
5680.379,0.26678565
5689.647,0.2769638
5698.945,0.28422458
5708.274,0.28911504
5717.633,0.29768161
5727.022,0.30821635
5736.443,0.31453702
5745.894,0.31963067
5755.377,0.32166678
5764.89,0.32276355
5774.436,0.33481799
5784.012,0.34786956
5793.621,0.35479187
5803.262,0.35870251
5812.934,0.35588063
5822.639,0.3553759
5832.376,0.36787359
5842.146,0.37909323
5851.948,0.38281389
5861.783,0.38388799
5871.652,0.38027824
5881.553,0.37713087
5891.488,0.38409882
5901.457,0.39741207
5911.459,0.40833542
5921.495,0.40810667
5931.565,0.40112905
5941.67,0.40780755
5951.809,0.4188793
5961.982,0.42022552
5972.19,0.42090609
5982.433,0.42349801
5992.711,0.427706
6003.025,0.43197498
6013.374,0.43387268
6023.759,0.4377018
6034.179,0.43204852
6044.636,0.41840776
6055.129,0.42466028
6065.658,0.43457012
6076.224,0.43892256
6086.826,0.44662854
6097.466,0.44673076
6108.143,0.44111201
6118.857,0.44627164
6129.609,0.45492021
6140.398,0.45717901
6151.226,0.45816233
6162.091,0.46193425
6172.996,0.46289879
6183.938,0.464788
6194.92,0.47501437
6205.94,0.48349152
6217.0,0.48827342
6228.099,0.49296808
6239.237,0.49702119
6250.416,0.5010769
6261.635,0.50494091
6272.893,0.5084111
6284.193,0.51200055
6295.533,0.5154927
6306.914,0.51863246
6318.336,0.52143029
6329.799,0.51915955
6341.304,0.51732616
6352.851,0.52373008
6364.44,0.52836209
6376.071,0.53228499
6387.745,0.53594014
6399.461,0.52682822
6411.221,0.51775226
6423.023,0.53069599
6434.869,0.54494299
6446.759,0.55139493
6458.693,0.55376216
6470.671,0.54968856
6482.693,0.54115307
6494.76,0.54712876
6506.872,0.56160121
6519.029,0.56913275
6531.231,0.57387993
6543.48,0.57613765
6555.774,0.57400419
6568.114,0.57360077
6580.501,0.58119616
6592.934,0.58989482
6605.415,0.59488179
6617.943,0.59254211
6630.518,0.58613203
6643.141,0.59460656
6655.812,0.60519239
6668.532,0.60581877
6681.3,0.60819339
6694.117,0.6135981
6706.983,0.61636774
6719.899,0.62006204
6732.864,0.62461303
6745.879,0.6276116
6758.945,0.62872258
6772.062,0.626344
6785.229,0.62563088
6798.448,0.63129582
6811.718,0.63478245
6825.039,0.63682965
6838.413,0.63773075
6851.84,0.63292908
6865.319,0.63639768
6878.851,0.64641635
6892.437,0.65046915
6906.076,0.65286501
6919.769,0.65643802
6933.517,0.65797781
6947.319,0.65718164
6961.176,0.66048646
6975.089,0.66674193
6989.057,0.67058034
7003.081,0.67369049
7017.161,0.67540679
7031.298,0.67490281
7045.492,0.67790405
7059.743,0.68389096
7074.052,0.68769199
7088.419,0.69009248
7102.845,0.69235594
7117.329,0.69472755
7131.872,0.69716328
7146.475,0.69972664
7161.137,0.70321443
7175.86,0.70777052
7190.643,0.71132244
7205.487,0.71437991
7220.393,0.71842478
7235.36,0.72247502
7250.39,0.72580609
7265.481,0.72874548
7280.636,0.73208616
7295.854,0.73537251
7311.135,0.73837194
7326.481,0.74145146
7341.891,0.74445749
7357.366,0.74729811
7372.906,0.75011048
7388.512,0.75298465
7404.184,0.75594089
7419.922,0.75886262
7435.728,0.76208731
7451.601,0.76584122
7467.541,0.76887226
7483.55,0.77095723
7499.628,0.77331943
7515.774,0.77601662
7531.99,0.77879676
7548.277,0.78159931
7564.633,0.78431255
7581.061,0.78705512
7597.56,0.78961762
7614.131,0.79171274
7630.774,0.79385849
7647.491,0.79640398
7664.28,0.79892301
7681.143,0.80132623
7698.08,0.80378766
7715.093,0.8063155
7732.18,0.80898522
7749.343,0.81156224
7766.583,0.81387087
7783.899,0.81627103
7801.292,0.81870444
7818.764,0.8210586
7836.313,0.82362682
7853.942,0.82608754
7871.649,0.82799283
7889.437,0.82959667
7907.305,0.83151391
7925.254,0.83425948
7943.285,0.83762171
7961.398,0.84106164
7979.594,0.84435681
7997.872,0.84759777
8016.235,0.8507657
8034.682,0.85363718
8053.214,0.85623407
8071.832,0.85859705
8090.535,0.86075206
8109.326,0.86276076
8128.204,0.86470268
8147.169,0.86661686
8166.224,0.868464
8185.368,0.87029132
8204.601,0.87204873
8223.925,0.87371768
8243.34,0.87533364
8262.847,0.87693632
8282.446,0.87871483
8302.139,0.88046192
8321.925,0.88202381
8341.805,0.88372052
8361.781,0.8854371
8381.852,0.88695064
8402.02,0.88845147
8422.285,0.88981422
8442.648,0.89086413
8463.109,0.89213533
8483.67,0.89390612
8504.331,0.89558321
8525.092,0.89696191
8545.955,0.89841208
8566.921,0.89987189
8587.989,0.90129991
8609.161,0.90285111
8630.437,0.9043424
8651.819,0.90567829
8673.307,0.90704911
8694.902,0.90848017
8716.604,0.90990962
8738.415,0.91142746
8760.335,0.9129703
8782.365,0.91431382
8804.507,0.91551213
8826.76,0.9167848
8849.125,0.91808949
8871.604,0.91927192
8894.198,0.92030255
8916.907,0.92133248
8939.732,0.92237985
8962.673,0.92325492
8985.733,0.92412496
9008.912,0.92490415
9032.21,0.92534459
9055.629,0.92563547
9079.17,0.92587012
9102.833,0.92606064
9126.62,0.92607317
9150.531,0.92590654
9174.568,0.92578828
9198.731,0.92583767
9223.022,0.92603392
9247.441,0.92632004
9271.99,0.9266923
9296.669,0.92709021
9321.48,0.92774144
9346.423,0.92880912
9371.5,0.92995213
9396.712,0.9311685
9422.06,0.93262783
9447.545,0.93417031
9473.167,0.93573407
9498.929,0.93728088
9524.832,0.93886583
9550.876,0.94049028
9577.062,0.94193194
9603.393,0.94324786
9629.868,0.94462217
9656.49,0.94604341
9683.259,0.94753771
9710.176,0.94917319
9737.244,0.9506726
9764.463,0.95192976
9791.834,0.9532464
9819.359,0.95472629
9847.039,0.956363
9874.875,0.95803524
9902.869,0.95969929
9931.022,0.96133497
9959.336,0.96274766
9987.811,0.96402168
10016.449,0.96533576
10045.252,0.96652112
10074.221,0.96752132
10103.357,0.96853323
10132.662,0.96951398
10162.137,0.97035319
10191.784,0.97111425
10221.604,0.97181339
10251.6,0.97248561
10281.771,0.97325519
10312.121,0.97406132
10342.65,0.97463752
10373.36,0.97493074
10404.253,0.9751102
10435.331,0.97523319
10466.594,0.97538527
10498.045,0.97557083
10529.686,0.97553833
10561.517,0.97524338
10593.542,0.97497955
10625.761,0.974795
10658.176,0.97456381
10690.79,0.97428357
10723.604,0.97386935
10756.619,0.97334868
10789.839,0.97272774
10823.264,0.97200461
10856.896,0.97143057
10890.738,0.97105186
10924.791,0.97057511
10959.058,0.96992743
10993.541,0.96923881
11028.24,0.96844909
11063.16,0.96758842
11098.301,0.96679866
11133.665,0.96606476
11169.256,0.96519591
11205.075,0.96428912
11241.124,0.96364518
11277.405,0.963068
11313.921,0.96222567
11350.675,0.96123911
11387.667,0.96034886
11424.901,0.95950183
11462.38,0.95880122
11500.105,0.95828166
11538.079,0.95755875
11576.304,0.95676171
11614.783,0.95625131
11653.518,0.955626
11692.513,0.95474538
11731.769,0.95384705
11771.29,0.95289151
11811.077,0.95220939
11851.134,0.95195804
11891.464,0.95170321
11932.068,0.95127807
11972.951,0.95052089
12014.114,0.9493576
12055.562,0.94819147
12097.296,0.94716966
12139.32,0.94633447
12181.636,0.94558586
12224.249,0.94477826
12267.16,0.94386011
12310.373,0.9428185
12353.892,0.94180274
12397.719,0.94082058
12441.859,0.94025906
12486.313,0.94022015
12531.086,0.94033422
12576.18,0.94064654
12621.601,0.94113244
12667.35,0.94157625
12713.432,0.9417603
12759.85,0.9417167
12806.608,0.94133084
12853.71,0.94060738
12901.159,0.93976377
12948.96,0.9386013
12997.116,0.9374828
13045.631,0.93674633
13094.51,0.93562768
13143.756,0.9338418
13193.373,0.93209888
13243.366,0.9305227
13293.74,0.92878097
13344.497,0.92697998
13395.644,0.92515772
13447.183,0.92305624
13499.121,0.92056915
13551.461,0.91779088
13604.208,0.91502273
13657.367,0.91199057
13710.943,0.90850069
13764.941,0.90500631
13819.365,0.90128009
13874.221,0.89737205
13929.515,0.89330981
13985.25,0.88837221
14041.433,0.88244135
14098.068,0.8762483
14155.163,0.86969287
14212.721,0.86213034
14270.749,0.85368682
14329.252,0.8443494
14388.237,0.83390375
14447.709,0.82198658
14507.674,0.80863797
14568.139,0.79395524
14629.109,0.77729319
14690.592,0.75839127
14752.594,0.73805319
14815.121,0.71737107
14878.179,0.6858995
14941.777,0.6469063
15005.92,0.62491309
15070.616,0.60203824
15135.871,0.56166547
15201.695,0.51666149
15268.092,0.46838498
15335.072,0.41866213
15402.642,0.3714814
15470.81,0.32708792
15539.583,0.28483654
15608.97,0.24623201
15678.979,0.21301683
15749.619,0.18526676
15820.897,0.16202243
15892.824,0.14257199
15965.407,0.12616117
