Database of Origin,University of Winnipeg Spectrophotometer Facility
Sample Description,16.11. Meteorites - HEDs 16.11.3. NASA samples (4) Bruker Vertex 70 FTIR spectrometer
Other Information,MIR Glowbar KBr Beam Splitter MCT cryo cooled Dectect.
Date Added,2018-07-23 23:49:06.527823

Data ID,FTIR_MET2_6_62      
Sample ID,PRA 04401
Mineral Name,Howardite
Grain Size,45-90 um
Viewing Geometry,i30/ e0
Resolution,7.71cm-1

Wavelength
1672.316177,0.19717
1674.476792,0.19791
1676.642997,0.19773
1678.814814,0.19668
1680.992268,0.19649
1683.175374,0.19752
1685.364158,0.1981
1687.558643,0.19783
1689.758849,0.19654
1691.9648,0.19484
1694.176519,0.1945
1696.394027,0.1949
1698.61735,0.1948
1700.846507,0.19452
1703.081521,0.19438
1705.322418,0.19442
1707.569219,0.1945
1709.821949,0.19435
1712.08063,0.19426
1714.345286,0.19412
1716.615945,0.19334
1718.892624,0.1924
1721.175349,0.19178
1723.464146,0.19144
1725.759038,0.1916
1728.060049,0.19197
1730.367205,0.19168
1732.68053,0.19089
1735.000051,0.19057
1737.325788,0.19079
1739.657769,0.19018
1741.996018,0.18912
1744.340562,0.18922
1746.691425,0.1896
1749.048633,0.1893
1751.412211,0.18877
1753.78219,0.18763
1756.158588,0.18671
1758.541435,0.18724
1760.930758,0.18788
1763.326581,0.18756
1765.728933,0.18722
1768.13784,0.18743
1770.553328,0.18756
1772.975429,0.18733
1775.404162,0.18696
1777.839558,0.18675
1780.281645,0.18688
1782.73045,0.18715
1785.186001,0.18706
1787.648326,0.18639
1790.117454,0.18531
1792.593414,0.18476
1795.07623,0.18505
1797.565933,0.1852
1800.062552,0.1847
1802.566116,0.18413
1805.076653,0.18429
1807.594193,0.185
1810.118766,0.18508
1812.650403,0.18406
1815.189129,0.18323
1817.734976,0.18354
1820.287974,0.18399
1822.848154,0.18369
1825.415545,0.18342
1827.990179,0.18366
1830.572085,0.18359
1833.161299,0.18272
1835.757844,0.18182
1838.361756,0.18169
1840.973065,0.18177
1843.591803,0.18201
1846.218001,0.18181
1848.851693,0.18105
1851.492909,0.18116
1854.141686,0.18158
1856.798049,0.18147
1859.462034,0.18139
1862.133675,0.1813
1864.813003,0.18097
1867.500053,0.1808
1870.194858,0.1807
1872.897451,0.1803
1875.60787,0.17977
1878.326142,0.17953
1881.052305,0.17934
1883.786392,0.17911
1886.528439,0.17928
1889.27848,0.1795
1892.03655,0.17974
1894.802685,0.17979
1897.576923,0.17914
1900.359294,0.17857
1903.149835,0.17847
1905.948585,0.17839
1908.755578,0.17818
1911.570851,0.17773
1914.394441,0.17764
1917.226385,0.17801
1920.066724,0.17804
1922.915487,0.17794
1925.772716,0.17748
1928.638449,0.17682
1931.512723,0.17683
1934.395578,0.17735
1937.28705,0.1776
1940.18718,0.17739
1943.09601,0.17706
1946.013571,0.17667
1948.939907,0.17682
1951.875057,0.17767
1954.819061,0.17775
1957.771959,0.17711
1960.733792,0.177
1963.7046,0.17684
1966.684429,0.17617
1969.67331,0.17591
1972.671291,0.17614
1975.678411,0.1762
1978.694713,0.17593
1981.72024,0.17552
1984.755033,0.17534
1987.799135,0.17539
1990.852594,0.17543
1993.915443,0.17536
1996.987732,0.17543
2000.069502,0.17573
2003.160799,0.17548
2006.261667,0.17478
2009.37215,0.17467
2012.492292,0.17499
2015.622144,0.17522
2018.761742,0.17534
2021.911136,0.17534
2025.070371,0.1755
2028.239495,0.17583
2031.418553,0.17615
2034.607593,0.17634
2037.806661,0.17622
2041.015809,0.17594
2044.235076,0.17564
2047.464515,0.17536
2050.704173,0.17529
2053.9541,0.17558
2057.214344,0.17624
2060.484955,0.17674
2063.765981,0.17645
2067.057478,0.17599
2070.359486,0.17599
2073.672061,0.176
2076.995253,0.17587
2080.329113,0.17576
2083.673693,0.17577
2087.029044,0.17581
2090.39522,0.17565
2093.772276,0.1753
2097.160256,0.17519
2100.559219,0.17552
2103.969217,0.17595
2107.390304,0.17607
2110.822536,0.17596
2114.265965,0.17599
2117.720647,0.17608
2121.186643,0.17605
2124.663997,0.17621
2128.152772,0.17656
2131.653022,0.17655
2135.164806,0.17627
2138.68818,0.17626
2142.223201,0.17681
2145.769927,0.17741
2149.328422,0.17747
2152.898735,0.17704
2156.480928,0.17676
2160.075063,0.17689
2163.681197,0.17698
2167.299393,0.17697
2170.929709,0.17707
2174.572208,0.17719
2178.226956,0.17724
2181.894004,0.17726
2185.57342,0.1771
2189.265266,0.177
2192.969606,0.17741
2196.686503,0.17769
2200.416021,0.1776
2204.158225,0.17762
2207.913183,0.17778
2211.680953,0.17784
2215.461603,0.17768
2219.255201,0.17777
2223.061813,0.17817
2226.881507,0.17825
2230.714349,0.17798
2234.560407,0.17765
2238.419756,0.17719
2242.292454,0.17709
2246.178575,0.17789
2250.07819,0.17871
2253.991369,0.17901
2257.918183,0.17924
2261.858702,0.17929
2265.813,0.17886
2269.781154,0.1781
2273.763225,0.17774
2277.759293,0.17788
2281.769432,0.17829
2285.793716,0.17887
2289.832221,0.1793
2293.88502,0.17947
2297.952192,0.17953
2302.033816,0.1794
2306.129961,0.17903
2310.240709,0.17882
2314.366139,0.17911
2318.506328,0.1797
2322.661356,0.17996
2326.831304,0.17978
2331.016252,0.17953
2335.216286,0.1794
2339.431477,0.1794
2343.661913,0.17947
2347.907677,0.17979
2352.168852,0.18032
2356.445521,0.18059
2360.737771,0.18053
2365.045686,0.1803
2369.369358,0.1799
2373.708861,0.17955
2378.06429,0.1796
2382.435731,0.17983
2386.823273,0.18007
2391.227005,0.18046
2395.647017,0.18062
2400.0834,0.18062
2404.53625,0.18088
2409.005647,0.18104
2413.491691,0.18101
2417.994473,0.18108
2422.514088,0.18112
2427.050631,0.1811
2431.604196,0.18116
2436.17488,0.18125
2440.762785,0.18129
2445.367997,0.18135
2449.99062,0.18138
2454.630753,0.18164
2459.288496,0.18205
2463.963948,0.1822
2468.657212,0.18207
2473.368389,0.18189
2478.097588,0.18198
2482.844901,0.18239
2487.610438,0.18253
2492.394303,0.18227
2497.196603,0.1821
2502.017445,0.18223
2506.856937,0.18246
2511.715186,0.18241
2516.592308,0.18224
2521.488402,0.18234
2526.403583,0.18234
2531.337964,0.18195
2536.291658,0.18185
2541.264778,0.18214
2546.257439,0.18227
2551.269756,0.18219
2556.301852,0.18178
2561.353831,0.18102
2566.425818,0.18088
2571.517932,0.18138
2576.630293,0.18175
2581.763021,0.18182
2586.91624,0.18166
2592.090072,0.18147
2597.284647,0.18157
2602.500077,0.18209
2607.736495,0.18278
2612.994027,0.18314
2618.272802,0.1828
2623.572949,0.18245
2628.894597,0.18237
2634.237878,0.18312
2639.60293,0.18401
2644.989874,0.18403
2650.398851,0.18396
2655.829995,0.18429
2661.283444,0.18434
2666.759335,0.18371
2672.257807,0.18368
2677.779,0.1849
2683.323062,0.18607
2688.890121,0.18622
2694.480328,0.18599
2700.093828,0.1857
2705.730766,0.18481
2711.39129,0.18369
2717.075548,0.18276
2722.783689,0.18204
2728.515871,0.18228
2734.272233,0.18235
2740.052934,0.18139
2745.85813,0.18084
2751.687977,0.1804
2757.542631,0.17957
2763.422252,0.17898
2769.327,0.17875
2775.257043,0.17885
2781.212529,0.1787
2787.19363,0.17841
2793.200512,0.17857
2799.233341,0.1785
2805.292287,0.17807
2811.377519,0.17822
2817.489208,0.17846
2823.627536,0.17832
2829.79266,0.17824
2835.984766,0.17828
2842.20403,0.17838
2848.450631,0.17838
2854.72475,0.17838
2861.02657,0.1789
2867.356274,0.17931
2873.714055,0.17884
2880.100086,0.17831
2886.514561,0.17847
2892.957673,0.17898
2899.429613,0.1793
2905.930575,0.17949
2912.460755,0.17962
2919.020351,0.17953
2925.609569,0.17907
2932.228594,0.1785
2938.877637,0.17811
2945.556904,0.17785
2952.266599,0.17803
2959.006933,0.17867
2965.778115,0.17917
2972.580357,0.17943
2979.413883,0.17969
2986.278891,0.1799
2993.175608,0.17995
3000.104254,0.17982
3007.065051,0.17977
3014.058225,0.17997
3021.084,0.18016
3028.142607,0.1803
3035.234283,0.18064
3042.359245,0.18093
3049.517737,0.18089
3056.709994,0.18089
3063.936258,0.18115
3071.196769,0.1814
3078.491772,0.18157
3085.821513,0.18182
3093.186251,0.18203
3100.586217,0.18198
3108.021674,0.18191
3115.492879,0.18217
3123.000089,0.18246
3130.543567,0.18259
3138.123574,0.18275
3145.740377,0.18274
3153.394256,0.18279
3161.08546,0.18326
3168.814274,0.18382
3176.580974,0.18445
3184.38584,0.18483
3192.229154,0.18461
3200.1112,0.1842
3208.032266,0.1839
3215.992653,0.18399
3223.992633,0.18447
3232.032514,0.18497
3240.112594,0.18509
3248.233176,0.18495
3256.394564,0.18485
3264.597068,0.18495
3272.840999,0.18525
3281.126681,0.18549
3289.454413,0.1853
3297.824524,0.18483
3306.237341,0.18504
3314.693189,0.18567
3323.192401,0.18584
3331.735311,0.18577
3340.322256,0.18594
3348.95359,0.18623
3357.629634,0.18648
3366.350748,0.18663
3375.117285,0.18673
3383.929601,0.1869
3392.788054,0.18696
3401.693008,0.18677
3410.64483,0.18674
3419.643903,0.18689
3428.690579,0.18675
3437.785247,0.18665
3446.928291,0.18673
3456.120099,0.18666
3465.36106,0.18666
3474.651571,0.1868
3483.99203,0.18699
3493.382855,0.18715
3502.824429,0.18717
3512.317177,0.18702
3521.861515,0.18702
3531.457866,0.18727
3541.106657,0.18743
3550.808317,0.1875
3560.563284,0.18755
3570.372009,0.1876
3580.234914,0.18772
3590.15246,0.18776
3600.125104,0.18765
3610.153306,0.18764
3620.237532,0.18761
3630.378252,0.18758
3640.575942,0.18767
3650.831097,0.18774
3661.144177,0.18787
3671.515689,0.18797
3681.946129,0.18792
3692.436003,0.18795
3702.985818,0.18805
3713.596091,0.18808
3724.267342,0.18802
3735.000113,0.18795
3745.79491,0.18797
3756.652285,0.18818
3767.572784,0.18855
3778.556959,0.18878
3789.605369,0.18889
3800.71858,0.18883
3811.897162,0.18855
3823.141709,0.18833
3834.452778,0.18842
3845.830974,0.18874
3857.276898,0.18897
3868.791155,0.18888
3880.37436,0.18857
3892.027134,0.18836
3903.750106,0.18849
3915.543926,0.18861
3927.409209,0.18852
3939.346621,0.18846
3951.356822,0.1883
3963.44048,0.18824
3975.598271,0.18856
3987.830879,0.18875
4000.138997,0.18861
4012.523342,0.18855
4024.984593,0.18861
4037.523484,0.18865
4050.140742,0.18868
4062.837106,0.18869
4075.613322,0.18872
4088.470144,0.18886
4101.408338,0.18906
4114.428697,0.1892
4127.531971,0.18926
4140.718972,0.18928
4153.990505,0.18925
4167.347385,0.18931
4180.790439,0.18949
4194.320503,0.18934
4207.938425,0.1885
4221.64508,0.18752
4235.441304,0.18711
4249.327994,0.18738
4263.306045,0.18775
4277.376359,0.18777
4291.539855,0.18786
4305.79746,0.18843
4320.150116,0.18898
4334.598795,0.18924
4349.144426,0.1894
4363.788008,0.18953
4378.530532,0.18957
4393.373006,0.1896
4408.316449,0.18971
4423.361896,0.18975
4438.510393,0.18974
4453.763023,0.18965
4469.120824,0.18964
4484.584908,0.19002
4500.15638,0.19019
4515.836365,0.19
4531.626,0.18987
4547.52644,0.18956
4563.538854,0.18933
4579.664452,0.1896
4595.904394,0.19001
4612.259923,0.19007
4628.732277,0.18989
4645.322713,0.18961
4662.032504,0.18935
4678.862943,0.18951
4695.815342,0.18977
4712.891054,0.18969
4730.091384,0.18947
4747.417723,0.18939
4764.871462,0.18925
4782.45401,0.18896
4800.1668,0.18896
4818.011283,0.18917
4835.988934,0.18907
4854.101273,0.18883
4872.349771,0.18861
4890.735994,0.18815
4909.261506,0.18809
4927.927896,0.18846
4946.736778,0.1887
4965.68979,0.18892
4984.788594,0.18903
5004.034903,0.18896
5023.430384,0.18887
5042.976803,0.18888
5062.675928,0.18893
5082.529556,0.18876
5102.539511,0.18847
5122.707649,0.18842
5143.03585,0.18846
5163.526056,0.18855
5184.180157,0.18888
5205.000154,0.18934
5225.988055,0.18956
5247.145898,0.18974
5268.475756,0.19021
5289.979735,0.1907
5311.659976,0.191
5333.518684,0.19116
5355.558014,0.19134
5377.780242,0.19161
5400.187657,0.19153
5422.78258,0.19128
5445.567377,0.19138
5468.544451,0.19162
5491.716246,0.19193
5515.085278,0.19217
5538.654014,0.19185
5562.425058,0.19123
5586.401024,0.19098
5610.584574,0.19081
5634.978416,0.19052
5659.585305,0.1907
5684.408043,0.19096
5709.449517,0.19066
5734.712564,0.19016
5760.200171,0.1898
5785.915346,0.18985
5811.861151,0.18972
5838.040701,0.18907
5864.457171,0.18822
5891.11379,0.18739
5918.013883,0.18696
5945.160732,0.18663
5972.557781,0.18669
6000.208507,0.1872
6028.116449,0.18714
6056.285213,0.1866
6084.718472,0.18705
6113.41997,0.18783
6142.393557,0.18824
6171.643046,0.1886
6201.172433,0.18921
6230.985758,0.18998
6261.087133,0.1905
6291.480755,0.19082
6322.1709,0.19081
6353.161929,0.19042
6384.458328,0.18975
6416.064553,0.18909
6447.985267,0.18915
6480.225188,0.18918
6512.789128,0.18917
6545.681997,0.18924
6578.908804,0.18906
6612.47466,0.18903
6646.384825,0.18908
6680.644535,0.18929
6715.259268,0.18968
6750.234571,0.18996
6785.576107,0.18961
6821.28966,0.18883
6857.381134,0.18819
6893.856559,0.18823
6930.722144,0.18854
6967.984085,0.18854
7005.648858,0.18836
7043.72303,0.18814
7082.213314,0.18812
7121.126567,0.18776
7160.469802,0.18706
7200.250183,0.18669
7240.47509,0.18621
7281.15191,0.1854
7322.288355,0.18475
7363.892259,0.18436
7405.971636,0.18403
7448.534685,0.18345
7491.589791,0.18271
7535.145539,0.18207
7579.210768,0.18113
7623.794353,0.17993
7668.905555,0.17898
7714.553795,0.17825
7760.74872,0.1775
7807.500211,0.17687
7854.818386,0.17623
7902.713612,0.17558
7951.196573,0.17533
8000.278026,0.17548
8049.969186,0.17604
8100.281485,0.17684
8151.226643,0.17714
8202.816677,0.17726
8255.063908,0.17787
8307.980976,0.1787
8361.580914,0.17936
8415.876885,0.17981
8470.882607,0.17998
8526.612089,0.18011
8583.07971,0.18071
8640.300232,0.18167
8698.288814,0.18273
8757.061026,0.18444
8816.632938,0.18745
8877.020825,0.19131
8938.241648,0.19539
9000.312761,0.19977
9063.252001,0.2041
9127.077709,0.20732
9191.808745,0.20912
9257.464511,0.21032
9324.065051,0.21147
9391.630729,0.21264
9460.182767,0.21378
9529.742923,0.21463
9600.3336,0.21462
9671.977869,0.21329
9744.699495,0.21115
9818.522964,0.20894
9893.473606,0.20735
9969.577237,0.20713
10046.86077,0.20835
10125.35186,0.21007
10205.07902,0.21145
10286.0717,0.21185
10368.36026,0.21113
10451.97605,0.20987
10536.95157,0.20811
10623.32001,0.20628
10711.11603,0.20457
10800.37531,0.202
10891.13475,0.1987
10983.43249,0.19665
11077.30797,0.1973
11172.80199,0.19961
11269.9569,0.20127
11368.81615,0.2013
11469.42513,0.19993
11571.83069,0.19765
11676.0814,0.19504
11782.22758,0.19234
11890.32139,0.18986
12000.41694,0.18831
12112.5705,0.18752
12226.84001,0.18659
12343.28609,0.18534
12461.97152,0.18425
12582.96151,0.18335
12706.32386,0.18256
12832.12902,0.18205
12960.45029,0.18186
13091.36408,0.1819
13224.94941,0.18239
13361.28907,0.18321
13500.46914,0.18422
13642.57932,0.18562
13787.71312,0.18637
13935.96807,0.18618
14087.44596,0.18627
14242.25324,0.18689
14400.50047,0.18755
14562.30382,0.18794
14727.78452,0.18776
14897.06937,0.18717
15070.29108,0.18708
15247.58859,0.18808
15429.10747,0.18951
15615.00054,0.19026
15805.42735,0.18915
16000.55605,0.18751
16200.56297,0.18857
16405.63335,0.19233
16615.96195,0.197
16831.75363,0.20122
17053.22403,0.20458
17280.60061,0.20805
17514.12221,0.21182
17754.04165,0.21557
18000.62552,0.21958
18254.15542,0.22273
18514.92902,0.22386
18783.26128,0.22407
19059.48566,0.22426
19343.95592,0.22633
19637.04612,0.23283
19939.15447,0.2398
20250.70371,0.243
20572.1434,0.24218
20903.95211,0.24066
21246.63979,0.24163
21600.75039,0.24164
21966.86522,0.23992
22345.60422,0.23743
22737.6323,0.23732
23143.66139,0.24266
23564.45516,0.24548
24000.83388,0.24005
24453.67973,0.22921
24923.94272,0.20214
25412.64804,0.16274
