Database of Origin,University of Winnipeg Spectrophotometer Facility
Sample Description,"HOSERLab master pyroxenes, FTIR data"
Date Added,2016-12-14 03:34:49.968318

Data ID,FTIR_PYX_15         
Sample ID,PYX117
Mineral Name,Orthopyroxene
Grain Size,<45 um
Viewing Geometry,"i=30, e=0"
Material Class,Inosilicate

Wavelength
2000.56,0.36819448
2001.142,0.36830514
2001.725,0.36845087
2002.307,0.36875729
2002.891,0.36919673
2003.474,0.36973073
2004.058,0.37033617
2004.643,0.37088451
2005.227,0.3712267
2005.812,0.37141253
2006.397,0.37162697
2006.983,0.37195226
2007.569,0.37233037
2008.155,0.37268904
2008.742,0.37298136
2009.329,0.37320878
2009.916,0.37345139
2010.504,0.37378382
2011.092,0.37416731
2011.68,0.37454217
2012.269,0.37493146
2012.858,0.37536018
2013.447,0.37576957
2014.037,0.37610911
2014.627,0.37639548
2015.217,0.37664085
2015.808,0.3768518
2016.399,0.37709876
2016.99,0.37745168
2017.582,0.37789394
2018.174,0.37838205
2018.766,0.37889011
2019.359,0.37932377
2019.952,0.37955951
2020.546,0.37962664
2021.139,0.37970924
2021.733,0.37992314
2022.328,0.38024106
2022.923,0.38058894
2023.518,0.38088943
2024.113,0.38108321
2024.709,0.38124185
2025.305,0.38155594
2025.902,0.382126
2026.499,0.38284194
2027.096,0.38351891
2027.693,0.38403699
2028.291,0.3843783
2028.89,0.38464044
2029.488,0.38499234
2030.087,0.38550959
2030.686,0.38609049
2031.286,0.38655423
2031.886,0.38678724
2032.486,0.38681879
2033.087,0.38683786
2033.688,0.38706661
2034.289,0.38755351
2034.891,0.38815804
2035.493,0.38874045
2036.096,0.38924764
2036.698,0.38967092
2037.302,0.39007329
2037.905,0.39058939
2038.509,0.39123863
2039.113,0.39185391
2039.718,0.3923089
2040.322,0.39266673
2040.928,0.39301313
2041.533,0.39336075
2042.139,0.39375295
2042.746,0.39424399
2043.352,0.3947652
2043.959,0.39522629
2044.567,0.39566329
2045.174,0.39611524
2045.782,0.39649979
2046.391,0.39680419
2047.0,0.39716549
2047.609,0.39762351
2048.218,0.39803803
2048.828,0.39836322
2049.438,0.39872669
2050.049,0.39918755
2050.66,0.39967114
2051.271,0.40014978
2051.883,0.40064405
2052.495,0.40111299
2053.107,0.40151902
2053.72,0.40192298
2054.333,0.40237193
2054.947,0.40284238
2055.56,0.40334552
2056.175,0.40391646
2056.789,0.40449293
2057.404,0.4049989
2058.019,0.40548477
2058.635,0.40601698
2059.251,0.40653038
2059.867,0.40695191
2060.484,0.40732123
2061.101,0.40768702
2061.718,0.40803763
2062.336,0.40839886
2062.954,0.40882664
2063.573,0.40931547
2064.192,0.40985724
2064.811,0.41050779
2065.431,0.41124154
2066.051,0.41190066
2066.671,0.4124202
2067.292,0.41292297
2067.913,0.41348749
2068.534,0.41403722
2069.156,0.41451079
2069.778,0.41493473
2070.401,0.41531404
2071.024,0.41567819
2071.647,0.41616952
2072.271,0.41687223
2072.895,0.41764544
2073.519,0.41831347
2074.144,0.41885838
2074.769,0.41929827
2075.395,0.41959757
2076.02,0.41983237
2076.647,0.42018443
2077.273,0.42067437
2077.9,0.42115565
2078.528,0.42161738
2079.155,0.4222025
2079.784,0.42292936
2080.412,0.42367443
2081.041,0.42439862
2081.67,0.42511966
2082.3,0.42574033
2082.93,0.42616337
2083.56,0.42648204
2084.191,0.42684433
2084.822,0.42728243
2085.454,0.42780474
2086.085,0.42846004
2086.718,0.42919851
2087.35,0.4298917
2087.983,0.43054187
2088.617,0.43124608
2089.251,0.43195208
2089.885,0.43251856
2090.519,0.4329609
2091.154,0.43339859
2091.789,0.43384401
2092.425,0.43428289
2093.061,0.43480578
2093.697,0.43546091
2094.334,0.43614359
2094.971,0.43678643
2095.609,0.4374478
2096.247,0.43814063
2096.885,0.43879656
2097.524,0.43943782
2098.163,0.44013346
2098.803,0.44082012
2099.443,0.44140546
2100.083,0.44197128
2100.723,0.44264147
2101.364,0.44337584
2102.006,0.4440722
2102.648,0.44471824
2103.29,0.44530948
2103.932,0.44581677
2104.575,0.44628936
2105.219,0.44680155
2105.862,0.44729248
2106.506,0.44766122
2107.151,0.44796119
2107.796,0.44830972
2108.441,0.44870389
2109.087,0.44911014
2109.733,0.44959845
2110.379,0.45024209
2111.026,0.45098468
2111.673,0.45173133
2112.321,0.45243746
2112.969,0.45307512
2113.617,0.45363183
2114.266,0.4541565
2114.915,0.45470358
2115.565,0.4552623
2116.215,0.45579367
2116.865,0.45630783
2117.516,0.45686393
2118.167,0.45752545
2118.819,0.4583009
2119.471,0.45911075
2120.123,0.45986331
2120.776,0.4605643
2121.429,0.46128839
2122.082,0.46206665
2122.736,0.4628745
2123.391,0.46365317
2124.045,0.4642932
2124.7,0.46472202
2125.356,0.46504158
2126.012,0.46543136
2126.668,0.46593342
2127.325,0.4665051
2127.982,0.4671747
2128.64,0.46795159
2129.297,0.46873339
2129.956,0.46949498
2130.614,0.47036511
2131.274,0.47134841
2131.933,0.47224521
2132.593,0.47297181
2133.253,0.47363766
2133.914,0.47425142
2134.575,0.47472604
2135.237,0.47515942
2135.899,0.4757295
2136.561,0.47640112
2137.224,0.47706761
2137.887,0.47780278
2138.55,0.47865273
2139.214,0.47945397
2139.879,0.48012404
2140.544,0.48081953
2141.209,0.4816132
2141.874,0.48236915
2142.54,0.48304306
2143.207,0.4837396
2143.873,0.48443414
2144.541,0.48502442
2145.208,0.4855882
2145.876,0.48624775
2146.545,0.48691799
2147.214,0.48751815
2147.883,0.48819899
2148.553,0.48908077
2149.223,0.49001513
2149.893,0.49080709
2150.564,0.49142245
2151.235,0.49187463
2151.907,0.49220348
2152.579,0.49259726
2153.252,0.49322974
2153.925,0.49399072
2154.598,0.49464839
2155.272,0.49518915
2155.946,0.49575187
2156.621,0.49635983
2157.296,0.49695549
2157.972,0.49757344
2158.647,0.49829122
2159.324,0.49911443
2160.001,0.500024
2160.678,0.50100016
2161.355,0.50194913
2162.033,0.50276071
2162.712,0.5034622
2163.39,0.50417009
2164.07,0.50490001
2164.749,0.50556402
2165.429,0.50612247
2166.11,0.50661636
2166.791,0.50709516
2167.472,0.50761954
2168.154,0.50826685
2168.836,0.50904471
2169.519,0.5098601
2170.202,0.51063764
2170.885,0.51136468
2171.569,0.51200985
2172.254,0.51254098
2172.938,0.5130502
2173.624,0.51371236
2174.309,0.51458703
2174.995,0.51557287
2175.682,0.51654246
2176.368,0.51742565
2177.056,0.51820896
2177.743,0.51894803
2178.432,0.51972121
2179.12,0.52049543
2179.809,0.52114236
2180.499,0.52163186
2181.189,0.52208143
2181.879,0.52261727
2182.57,0.52330371
2183.261,0.52416514
2183.952,0.52512391
2184.644,0.52598769
2185.337,0.52666323
2186.03,0.52727929
2186.723,0.52798477
2187.417,0.52878612
2188.111,0.52966055
2188.806,0.53060658
2189.501,0.53152918
2190.196,0.53230073
2190.892,0.53295863
2191.589,0.5336397
2192.285,0.53436401
2192.983,0.53508611
2193.68,0.53584864
2194.379,0.53667516
2195.077,0.53747513
2195.776,0.53821655
2196.476,0.5390197
2197.175,0.53994328
2197.876,0.54089348
2198.577,0.54179332
2199.278,0.54264232
2199.979,0.54339022
2200.682,0.54399353
2201.384,0.54455831
2202.087,0.54521922
2202.79,0.54594957
2203.494,0.54666097
2204.199,0.54738381
2204.903,0.5481882
2205.609,0.54903056
2206.314,0.5498239
2207.02,0.55056385
2207.727,0.55128489
2208.434,0.55197203
2209.141,0.55261289
2209.849,0.55327229
2210.557,0.55403704
2211.266,0.55490244
2211.975,0.5557837
2212.685,0.55663709
2213.395,0.55747324
2214.106,0.55825908
2214.817,0.55894204
2215.528,0.55956958
2216.24,0.56023329
2216.952,0.56091237
2217.665,0.56155058
2218.379,0.5622164
2219.092,0.56296538
2219.806,0.56365405
2220.521,0.56414492
2221.236,0.5645281
2221.952,0.56492072
2222.668,0.5652962
2223.384,0.56571243
2224.101,0.56635702
2224.818,0.56720075
2225.536,0.56799549
2226.254,0.56870993
2226.973,0.56953322
2227.692,0.57045587
2228.412,0.57129382
2229.132,0.57202454
2229.853,0.57268684
2230.574,0.5731571
2231.295,0.57342087
2232.017,0.57374898
2232.74,0.57429217
2233.462,0.57490134
2234.186,0.57552322
2234.91,0.57629668
2235.634,0.57717425
2236.359,0.5779502
2237.084,0.57864642
2237.809,0.57940228
2238.536,0.58013871
2239.262,0.58074761
2239.989,0.58133039
2240.717,0.58193466
2241.445,0.58241788
2242.173,0.58278774
2242.902,0.58324608
2243.631,0.58382131
2244.361,0.58440049
2245.092,0.58504267
2245.822,0.58582095
2246.554,0.58657299
2247.285,0.58719107
2248.017,0.58784208
2248.75,0.58859158
2249.483,0.58924247
2250.217,0.5897445
2250.951,0.5902761
2251.686,0.59086223
2252.421,0.59140258
2253.156,0.59200054
2253.892,0.59277037
2254.628,0.59352263
2255.365,0.59408764
2256.103,0.59462028
2256.841,0.59524248
2257.579,0.59581848
2258.318,0.59634707
2259.057,0.59707137
2259.797,0.59802082
2260.537,0.59894503
2261.278,0.59976653
2262.019,0.60060809
2262.761,0.60142956
2263.503,0.60211062
2264.246,0.60274125
2264.989,0.60343507
2265.732,0.60407018
2266.477,0.604537
2267.221,0.60496226
2267.966,0.60543818
2268.712,0.60586715
2269.458,0.60624213
2270.204,0.60677054
2270.951,0.60756911
2271.699,0.6085176
2272.447,0.60946068
2273.195,0.6103174
2273.944,0.6110185
2274.694,0.61156903
2275.444,0.61213605
2276.194,0.6128714
2276.945,0.61369005
2277.696,0.61438066
2278.448,0.61490552
2279.201,0.6154359
2279.954,0.61611666
2280.707,0.61690799
2281.461,0.61767358
2282.215,0.61831956
2282.97,0.61883324
2283.725,0.61925793
2284.481,0.61966864
2285.237,0.62012715
2285.994,0.62065501
2286.752,0.62127246
2287.509,0.62201732
2288.268,0.62284924
2289.026,0.62358031
2289.786,0.62404394
2290.545,0.6243126
2291.306,0.62463691
2292.067,0.62518332
2292.828,0.62591422
2293.59,0.62668394
2294.352,0.62736845
2295.115,0.62792063
2295.878,0.62836569
2296.642,0.62876545
2297.406,0.62919248
2298.171,0.6297103
2298.936,0.63034873
2299.702,0.63107965
2300.468,0.63183755
2301.235,0.63256067
2302.002,0.63320491
2302.77,0.6337661
2303.539,0.63430523
2304.307,0.63489518
2305.077,0.63553967
2305.847,0.63621166
2306.617,0.63693716
2307.388,0.63773794
2308.159,0.63853511
2308.931,0.63922161
2309.703,0.63978638
2310.476,0.64028106
2311.25,0.64073225
2312.024,0.64116018
2312.798,0.64161926
2313.573,0.64215034
2314.348,0.64276487
2315.124,0.64345635
2315.901,0.64416304
2316.678,0.64476383
2317.455,0.64521244
2318.234,0.64561626
2319.012,0.64610931
2319.791,0.64668063
2320.571,0.64721785
2321.351,0.6476815
2322.131,0.64818281
2322.913,0.64885795
2323.694,0.64967564
2324.476,0.650444
2325.259,0.65103065
2326.042,0.65150093
2326.826,0.6519827
2327.61,0.65251145
2328.395,0.65305747
2329.18,0.65358599
2329.966,0.6540542
2330.753,0.65445886
2331.54,0.65488589
2332.327,0.65539922
2333.115,0.65597407
2333.903,0.65661043
2334.692,0.65734547
2335.482,0.65807161
2336.272,0.6585957
2337.062,0.65895487
2337.854,0.65939846
2338.645,0.66003234
2339.437,0.66074258
2340.23,0.66142661
2341.023,0.66202426
2341.817,0.66244453
2342.611,0.6627128
2343.406,0.66304372
2344.201,0.66357091
2344.997,0.66421418
2345.794,0.66489505
2346.591,0.66560733
2347.388,0.66627106
2348.186,0.66683627
2348.985,0.66744548
2349.784,0.66818216
2350.583,0.66885311
2351.384,0.66928441
2352.184,0.66958987
2352.986,0.6699237
2353.787,0.67030219
2354.59,0.67076695
2355.393,0.67135975
2356.196,0.67193852
2357.0,0.6723669
2357.804,0.67277457
2358.609,0.67328223
2359.415,0.67374113
2360.221,0.67406322
2361.028,0.67444222
2361.835,0.6749748
2362.643,0.6754825
2363.451,0.67589164
2364.26,0.67632882
2365.069,0.67678695
2365.879,0.67714221
2366.69,0.67747098
2367.501,0.67790098
2368.312,0.67831159
2369.125,0.67856903
2369.937,0.67881376
2370.751,0.67918349
2371.564,0.67958592
2372.379,0.67996062
2373.194,0.68040422
2374.009,0.68089906
2374.825,0.68130557
2375.642,0.68167211
2376.459,0.68217108
2377.276,0.68277564
2378.095,0.68331903
2378.913,0.68376428
2379.733,0.68414481
2380.553,0.68442337
2381.373,0.68462995
2382.194,0.68493782
2383.016,0.68545204
2383.838,0.68610113
2384.661,0.68676893
2385.484,0.68736458
2386.308,0.68779811
2387.132,0.68806451
2387.957,0.68828582
2388.783,0.68857036
2389.609,0.6889189
2390.435,0.68932137
2391.263,0.68978371
2392.09,0.69025553
2392.919,0.69068155
2393.748,0.69110507
2394.577,0.6915896
2395.407,0.69207992
2396.238,0.69247335
2397.069,0.69275306
2397.901,0.69293853
2398.733,0.69303174
2399.566,0.69311932
2400.399,0.69337261
2401.233,0.69382549
2402.068,0.69431288
2402.903,0.69470408
2403.739,0.69504847
2404.575,0.6954133
2405.412,0.69576714
2406.25,0.69610383
2407.088,0.69647375
2407.926,0.69682956
2408.766,0.69704551
2409.606,0.69716009
2410.446,0.6973675
2411.287,0.69772435
2412.128,0.69811121
2412.971,0.69848606
2413.813,0.69889566
2414.657,0.69927379
2415.5,0.69953254
2416.345,0.69979741
2417.19,0.70023502
2418.036,0.70073774
2418.882,0.70108805
2419.729,0.70131292
2420.576,0.70156957
2421.424,0.70185616
2422.272,0.70211864
2423.122,0.70243822
2423.971,0.70285003
2424.822,0.7032081
2425.673,0.70344337
2426.524,0.70371485
2427.376,0.70410478
2428.229,0.70444564
2429.082,0.70461857
2429.936,0.70474555
2430.791,0.70493354
2431.646,0.70509039
2432.501,0.70516821
2433.358,0.70533522
2434.214,0.70571696
2435.072,0.70616665
2435.93,0.70648032
2436.789,0.70665267
2437.648,0.7067635
2438.508,0.70681416
2439.368,0.70687761
2440.229,0.70714335
2441.091,0.70761885
2441.953,0.70804805
2442.816,0.70833024
2443.679,0.70867466
2444.543,0.70915465
2445.408,0.70953649
2446.273,0.70973727
2447.139,0.70997302
2448.006,0.71029206
2448.873,0.71048257
2449.74,0.71052927
2450.609,0.71061793
2451.478,0.71069478
2452.347,0.71061116
2453.217,0.71056308
2454.088,0.71081945
2454.959,0.71124228
2455.831,0.71158912
2456.704,0.71192745
2457.577,0.71231148
2458.451,0.71251792
2459.325,0.71247894
2460.2,0.71245816
2461.076,0.71258701
2461.952,0.71277298
2462.829,0.71309236
2463.707,0.71368018
2464.585,0.71429976
2465.464,0.71460215
2466.343,0.71461586
2467.223,0.7145568
2468.104,0.71448648
2468.985,0.71447527
2469.867,0.71466174
2470.749,0.71496897
2471.632,0.71520624
2472.516,0.71543068
2473.4,0.715743
2474.285,0.71597709
2475.171,0.71603243
2476.057,0.71612408
2476.944,0.71633458
2477.832,0.71643501
2478.72,0.71639663
2479.608,0.7164739
2480.498,0.71669753
2481.388,0.71690962
2482.278,0.71719126
2483.17,0.71760844
2484.062,0.71785048
2484.954,0.71775094
2485.847,0.71769009
2486.741,0.71793861
2487.636,0.71825407
2488.531,0.71848686
2489.427,0.7188384
2490.323,0.71924497
2491.22,0.71934932
2492.118,0.71921046
2493.016,0.71921672
2493.915,0.71936164
2494.814,0.71941016
2495.715,0.71951406
2496.615,0.71988038
2497.517,0.72024459
2498.419,0.72037265
2499.322,0.72053874
2500.225,0.7208997
2501.129,0.72108841
2502.034,0.72093442
2502.939,0.72083735
2503.845,0.72099283
2504.752,0.72107744
2505.659,0.72100144
2506.567,0.72110218
2507.476,0.72137616
2508.385,0.72144289
2509.295,0.72135466
2510.206,0.72154028
2511.117,0.72195561
2512.029,0.72219348
2512.942,0.72228332
2513.855,0.722486
2514.769,0.7225737
2515.683,0.72227864
2516.598,0.72200044
2517.514,0.72215538
2518.431,0.72242406
2519.348,0.72251416
2520.266,0.72280585
2521.184,0.72342748
2522.103,0.72370825
2523.023,0.72336303
2523.944,0.72304066
2524.865,0.72303741
2525.787,0.72284919
2526.709,0.7225141
2527.632,0.72270969
2528.556,0.72324743
2529.48,0.7231871
2530.406,0.72260861
2531.331,0.72245672
2532.258,0.72273494
2533.185,0.72272968
2534.113,0.72264206
2535.041,0.72300063
2535.971,0.7233031
2536.9,0.72306685
2537.831,0.72309014
2538.762,0.72385642
2539.694,0.7242824
2540.627,0.72352747
2541.56,0.72252867
2542.494,0.72232403
2543.428,0.72248025
2544.364,0.72255207
2545.3,0.72303073
2546.236,0.72374255
2547.174,0.72361573
2548.112,0.72282827
2549.05,0.72278548
2549.99,0.72344534
2550.93,0.72330359
2551.87,0.72240133
2552.812,0.72246571
2553.754,0.72365168
2554.697,0.72438354
2555.64,0.72442996
2556.585,0.7248094
2557.529,0.72516015
2558.475,0.72409474
2559.421,0.72202497
2560.368,0.72059781
2561.316,0.71959093
2562.264,0.71778648
2563.213,0.71670537
2564.163,0.71826475
2565.113,0.72085876
2566.065,0.72213168
2567.016,0.72266712
2567.969,0.72356889
2568.922,0.72371477
2569.876,0.72242758
2570.831,0.72191724
2571.786,0.72304902
2572.742,0.7232449
2573.699,0.72145299
2574.656,0.72057412
2575.615,0.72164517
2576.573,0.72206189
2577.533,0.72138899
2578.493,0.72210224
2579.454,0.72370473
2580.416,0.72312664
2581.378,0.72079404
2582.342,0.71998596
2583.305,0.72043466
2584.27,0.71946578
2585.235,0.71847935
2586.201,0.71966686
2587.168,0.72089675
2588.135,0.7199665
2589.103,0.71963971
2590.072,0.7218589
2591.042,0.72393826
2592.012,0.72365463
2592.983,0.72261312
2593.955,0.72154237
2594.927,0.71850956
2595.9,0.71572003
2596.874,0.71738572
2597.849,0.7214023
2598.824,0.72345682
2599.8,0.72332169
2600.777,0.72331709
2601.755,0.72328616
2602.733,0.72156801
2603.712,0.7195098
2604.692,0.71921413
2605.672,0.71936378
2606.653,0.71858213
2607.635,0.71870901
2608.618,0.72049216
2609.601,0.72182075
2610.585,0.72182487
2611.57,0.72207758
2612.556,0.72297902
2613.542,0.72304013
2614.529,0.72186243
2615.517,0.72053362
2616.505,0.71940757
2617.495,0.71826448
2618.485,0.71782923
2619.475,0.71858285
2620.467,0.71959497
2621.459,0.72036627
2622.452,0.72151427
2623.446,0.72299738
2624.44,0.72370211
2625.435,0.72308596
2626.431,0.72190147
2627.428,0.72101885
2628.426,0.72047159
2629.424,0.71999456
2630.423,0.71958387
2631.423,0.71939647
2632.423,0.71963848
2633.424,0.72034759
2634.426,0.72132874
2635.429,0.72234563
2636.432,0.72329639
2637.437,0.72404481
2638.442,0.72438601
2639.447,0.72423254
2640.454,0.72371931
2641.461,0.72316508
2642.469,0.72286678
2643.478,0.72278007
2644.488,0.72252945
2645.498,0.72208658
2646.509,0.72201561
2647.521,0.72262469
2648.534,0.72348859
2649.547,0.72407057
2650.561,0.72404608
2651.576,0.72315044
2652.592,0.72166647
2653.609,0.72068324
2654.626,0.72078496
2655.644,0.72123555
2656.663,0.72131574
2657.682,0.72111214
2658.703,0.72057745
2659.724,0.71944036
2660.746,0.71844764
2661.768,0.71865823
2662.792,0.71936525
2663.816,0.71881424
2664.841,0.71684572
2665.867,0.71512009
2666.894,0.71450932
2667.921,0.7144516
2668.949,0.71468108
2669.978,0.7148087
2671.008,0.714132
2672.038,0.7134479
2673.07,0.71422685
2674.102,0.71573455
2675.135,0.71578434
2676.168,0.71384742
2677.203,0.71201697
2678.238,0.71189853
2679.274,0.71292488
2680.311,0.71454248
2681.349,0.71642874
2682.387,0.71745656
2683.426,0.71694366
2684.467,0.71596789
2685.507,0.71569251
2686.549,0.71575416
2687.591,0.71574439
2688.635,0.71624997
2689.679,0.71729527
2690.724,0.71787055
2691.769,0.71745945
2692.816,0.71646741
2693.863,0.71519545
2694.911,0.7139824
2695.96,0.71385699
2697.01,0.71514153
2698.06,0.71660616
2699.112,0.71706157
2700.164,0.71653551
2701.217,0.7155842
2702.27,0.71447795
2703.325,0.7135236
2704.38,0.71303671
2705.437,0.71270142
2706.494,0.71200276
2707.552,0.71105223
2708.61,0.71003682
2709.67,0.70830138
2710.73,0.7055055
2711.791,0.70295015
2712.853,0.70182599
2713.916,0.70157216
2714.98,0.70136483
2716.044,0.70111896
2717.109,0.70060121
2718.175,0.69892242
2719.242,0.69579092
2720.31,0.69232659
2721.379,0.68967532
2722.448,0.68770687
2723.518,0.68607512
2724.589,0.68485696
2725.661,0.68370061
2726.734,0.68214809
2727.808,0.68076124
2728.882,0.68010549
2729.958,0.67948385
2731.034,0.67803743
2732.111,0.67628475
2733.188,0.67493031
2734.267,0.67320075
2735.347,0.67035857
2736.427,0.66768973
2737.508,0.66614087
2738.59,0.66399846
2739.673,0.65951333
2740.757,0.65476032
2741.841,0.65261093
2742.927,0.65201753
2744.013,0.65120946
2745.1,0.65047315
2746.188,0.64979699
2747.277,0.648023
2748.367,0.6452223
2749.457,0.64305258
2750.549,0.64184102
2751.641,0.64026805
2752.734,0.63810423
2753.828,0.63610645
2754.923,0.63339681
2756.019,0.62885837
2757.115,0.62494654
2758.213,0.62403017
2759.311,0.624222
2760.41,0.62281079
2761.51,0.6198332
2762.611,0.61668007
2763.713,0.61348982
2764.816,0.61012442
2765.919,0.60779061
2767.024,0.60684361
2768.129,0.60576954
2769.235,0.60371615
2770.342,0.60170313
2771.45,0.60013014
2772.559,0.59805411
2773.669,0.59556057
2774.779,0.59374355
2775.891,0.5923783
2777.003,0.59030445
2778.116,0.5876337
2779.23,0.58540918
2780.345,0.58348172
2781.461,0.58101136
2782.578,0.57844224
2783.696,0.57671227
2784.814,0.57529209
2785.934,0.57291728
2787.054,0.56965132
2788.175,0.5668113
2789.297,0.56502124
2790.42,0.56374616
2791.544,0.56246355
2792.669,0.56090838
2793.795,0.55882181
2794.922,0.55630165
2796.049,0.55391147
2797.178,0.55182818
2798.307,0.54942126
2799.437,0.54605352
2800.568,0.54168163
2801.7,0.53636675
2802.833,0.53007701
2803.967,0.52359331
2805.102,0.51852755
2806.238,0.51542298
2807.374,0.51324406
2808.512,0.5110813
2809.65,0.50910931
2810.789,0.50775658
2811.93,0.50691299
2813.071,0.5064101
2814.213,0.50651264
2815.356,0.50739289
2816.5,0.50870721
2817.645,0.51003677
2818.791,0.51124105
2819.937,0.51225621
2821.085,0.51316275
2822.233,0.51434356
2823.383,0.5159446
2824.533,0.51743166
2825.685,0.51817643
2826.837,0.51806539
2827.99,0.51727839
2829.144,0.51588743
2830.299,0.51393657
2831.455,0.51142787
2832.612,0.5080913
2833.77,0.50363265
2834.929,0.49826074
2836.089,0.49253867
2837.25,0.48686384
2838.411,0.48147842
2839.574,0.47668364
2840.737,0.47261823
2841.902,0.4691717
2843.067,0.46627797
2844.234,0.46393837
2845.401,0.46196296
2846.569,0.46014493
2847.739,0.4586359
2848.909,0.45773442
2850.08,0.45747662
2851.252,0.45781469
2852.425,0.45889205
2853.599,0.46079372
2854.774,0.46340152
2855.95,0.46672686
2857.127,0.47092139
2858.305,0.47579757
2859.484,0.48086075
2860.664,0.48583555
2861.844,0.49064531
2863.026,0.49496553
2864.209,0.4984254
2865.392,0.50113845
2866.577,0.50349225
2867.763,0.50559678
2868.949,0.50737557
2870.137,0.50889942
2871.325,0.51022637
2872.515,0.51123816
2873.705,0.51194604
2874.897,0.51262781
2876.089,0.51339481
2877.283,0.5140215
2878.477,0.51437967
2879.673,0.51468499
2880.869,0.51512222
2882.066,0.51554531
2883.265,0.51572477
2884.464,0.515673
2885.664,0.51553699
2886.866,0.5153668
2888.068,0.51514246
2889.271,0.51490884
2890.476,0.51468241
2891.681,0.51432736
2892.887,0.51374008
2894.095,0.51305439
2895.303,0.51242923
2896.512,0.51177586
2897.723,0.51092337
2898.934,0.50990627
2900.146,0.50883589
2901.36,0.50769114
2902.574,0.50647174
2903.789,0.50532735
2905.006,0.50427064
2906.223,0.50309134
2907.441,0.50172681
2908.661,0.50036778
2909.881,0.49903897
2911.103,0.49750547
2912.325,0.49573987
2913.549,0.49405516
2914.773,0.49262132
2915.999,0.49125836
2917.225,0.48978699
2918.453,0.48821695
2919.681,0.48653989
2920.911,0.4847376
2922.142,0.48299597
2923.373,0.48156296
2924.606,0.48041381
2925.84,0.47937694
2927.075,0.47847563
2928.31,0.47785165
2929.547,0.47746704
2930.785,0.47720937
2932.024,0.47715999
2933.264,0.47745324
2934.505,0.4779719
2935.747,0.47847386
2936.99,0.47890451
2938.234,0.47934659
2939.479,0.47978923
2940.726,0.48022165
2941.973,0.48080776
2943.221,0.48170563
2944.471,0.48285079
2945.721,0.48410259
2946.973,0.48539849
2948.225,0.48658691
2949.479,0.48742222
2950.733,0.48791791
2951.989,0.48839685
2953.246,0.48901568
2954.504,0.48957768
2955.763,0.48993423
2957.023,0.4901984
2958.284,0.4904713
2959.546,0.49074443
2960.809,0.4911135
2962.073,0.49170099
2963.339,0.4923746
2964.605,0.4928895
2965.873,0.49322734
2967.141,0.49348302
2968.411,0.49360483
2969.681,0.49357617
2970.953,0.4936078
2972.226,0.49385648
2973.5,0.49418543
2974.775,0.49441871
2976.051,0.49454545
2977.328,0.49452761
2978.607,0.49425714
2979.886,0.49384172
2981.167,0.49358693
2982.448,0.49359145
2983.731,0.49364442
2985.015,0.49357367
2986.3,0.49342611
2987.586,0.49329151
2988.873,0.4932001
2990.161,0.49316626
2991.45,0.49312078
2992.74,0.49288391
2994.032,0.49240206
2995.324,0.49192278
2996.618,0.49173048
2997.913,0.49180758
2999.209,0.49194986
3000.506,0.49208522
3001.804,0.49224011
3003.103,0.49231707
3004.404,0.4921746
3005.705,0.49186181
3007.008,0.49154097
3008.312,0.49126757
3009.616,0.49106097
3010.922,0.49104229
3012.23,0.49124842
3013.538,0.49146796
3014.847,0.49150329
3016.158,0.49141197
3017.469,0.49129643
3018.782,0.49110735
3020.096,0.49084785
3021.411,0.49068137
3022.727,0.49066276
3024.044,0.49068095
3025.363,0.49077033
3026.683,0.49112527
3028.003,0.49172078
3029.325,0.49229193
3030.648,0.49269344
3031.972,0.49292174
3033.298,0.49286697
3034.624,0.49243954
3035.952,0.49184721
3037.281,0.49140858
3038.611,0.49120599
3039.942,0.49117396
3041.274,0.49130566
3042.607,0.49152433
3043.942,0.49160007
3045.278,0.49141023
3046.615,0.49108215
3047.953,0.4907704
3049.292,0.49050656
3050.632,0.49029129
3051.974,0.4901303
3053.317,0.48996778
3054.661,0.48975373
3056.006,0.48954309
3057.352,0.48941637
3058.7,0.48937405
3060.048,0.48938756
3061.398,0.48946773
3062.749,0.48962471
3064.101,0.48980142
3065.455,0.48985392
3066.809,0.48962461
3068.165,0.48911126
3069.522,0.48852424
3070.88,0.48808089
3072.239,0.48781503
3073.6,0.48768521
3074.962,0.48770024
3076.325,0.48780611
3077.689,0.48784816
3079.054,0.48776874
3080.421,0.4876528
3081.788,0.48752632
3083.157,0.48736775
3084.527,0.48729147
3085.899,0.48740997
3087.271,0.48755259
3088.645,0.48745137
3090.02,0.48712181
3091.396,0.48676752
3092.774,0.48644248
3094.153,0.48611697
3095.532,0.48588559
3096.914,0.48582877
3098.296,0.48585351
3099.679,0.48587739
3101.064,0.48591472
3102.45,0.48587307
3103.837,0.48558452
3105.226,0.48514336
3106.616,0.48486235
3108.007,0.48482235
3109.399,0.48481516
3110.792,0.48475937
3112.187,0.48480675
3113.583,0.48502421
3114.98,0.48529725
3116.378,0.48554358
3117.778,0.48575994
3119.179,0.48591752
3120.581,0.48602199
3121.985,0.48618665
3123.389,0.48645797
3124.795,0.48670592
3126.202,0.48683894
3127.611,0.48696639
3129.02,0.48721612
3130.431,0.48755944
3131.844,0.48792192
3133.257,0.48830544
3134.672,0.48871189
3136.088,0.48907498
3137.505,0.48934778
3138.924,0.48955655
3140.344,0.48975243
3141.765,0.48997918
3143.187,0.49027526
3144.611,0.49064326
3146.036,0.49104089
3147.462,0.49142992
3148.89,0.49179698
3150.319,0.49213894
3151.749,0.49245717
3153.18,0.49275868
3154.613,0.49304018
3156.047,0.49330843
3157.482,0.49359592
3158.919,0.49389418
3160.357,0.49410955
3161.796,0.4941895
3163.236,0.49423963
3164.678,0.4944053
3166.121,0.49469926
3167.566,0.49504411
3169.011,0.49537602
3170.458,0.49561408
3171.907,0.4956889
3173.356,0.49568983
3174.807,0.49583557
3176.26,0.49622863
3177.713,0.49678212
3179.168,0.49736516
3180.624,0.49782173
3182.082,0.49793153
3183.541,0.49762037
3185.001,0.49716539
3186.463,0.49693458
3187.926,0.49700168
3189.39,0.49722766
3190.856,0.49755212
3192.323,0.4979493
3193.791,0.49826445
3195.26,0.49834274
3196.731,0.49820938
3198.204,0.49797255
3199.677,0.49771514
3201.152,0.4975668
3202.629,0.49765027
3204.106,0.49786826
3205.585,0.49797189
3207.066,0.49789858
3208.548,0.4978461
3210.031,0.49798482
3211.515,0.498318
3213.001,0.49880404
3214.488,0.49936509
3215.977,0.49977345
3217.467,0.49977289
3218.958,0.49935874
3220.451,0.49878644
3221.945,0.49830873
3223.441,0.49804563
3224.938,0.49802154
3226.436,0.49813841
3227.936,0.49816533
3229.437,0.49797086
3230.939,0.49771339
3232.443,0.49763174
3233.948,0.49773261
3235.455,0.49785401
3236.963,0.49790856
3238.472,0.49789019
3239.983,0.49779084
3241.495,0.49769711
3243.008,0.49778498
3244.523,0.49805818
3246.04,0.49828966
3247.558,0.49836937
3249.077,0.49845453
3250.598,0.49866447
3252.12,0.49891302
3253.643,0.49915034
3255.168,0.49942968
3256.694,0.49966853
3258.222,0.49966385
3259.751,0.49940161
3261.282,0.49906156
3262.814,0.49874833
3264.347,0.49851325
3265.882,0.49851234
3267.418,0.49881467
3268.956,0.49919501
3270.495,0.49939343
3272.036,0.49942088
3273.578,0.49939541
3275.122,0.49933268
3276.667,0.4992796
3278.213,0.49938479
3279.761,0.49966688
3281.31,0.49998531
3282.861,0.50031027
3284.413,0.50073919
3285.967,0.50122969
3287.522,0.50161981
3289.079,0.50190023
3290.637,0.50220439
3292.196,0.50257972
3293.757,0.50298348
3295.32,0.50338519
3296.884,0.50369052
3298.449,0.50373764
3300.016,0.50355594
3301.585,0.5034391
3303.155,0.50360864
3304.726,0.5039721
3306.299,0.50431297
3307.873,0.50453804
3309.449,0.5046816
3311.026,0.50482719
3312.605,0.50506285
3314.185,0.50539757
3315.767,0.50572502
3317.351,0.50595048
3318.936,0.50611033
3320.522,0.50631767
3322.11,0.50666733
3323.699,0.50722293
3325.29,0.50797238
3326.882,0.50876087
3328.476,0.50935859
3330.072,0.50961117
3331.669,0.50950885
3333.267,0.50917274
3334.867,0.50882342
3336.469,0.50865353
3338.072,0.508681
3339.676,0.50881184
3341.282,0.50902291
3342.89,0.50933458
3344.499,0.5096599
3346.11,0.50987188
3347.722,0.50998128
3349.336,0.510055
3350.952,0.51004286
3352.569,0.50986007
3354.187,0.50954178
3355.807,0.50915086
3357.429,0.50868476
3359.052,0.50820002
3360.677,0.5078266
3362.303,0.50752599
3363.931,0.50705773
3365.56,0.50627622
3367.191,0.50524923
3368.824,0.50405842
3370.458,0.50276019
3372.093,0.50152279
3373.731,0.50051529
3375.37,0.49970622
3377.01,0.49902697
3378.652,0.49861056
3380.296,0.49859382
3381.941,0.49886497
3383.588,0.49926619
3385.236,0.49981303
3386.886,0.50047672
3388.538,0.50100386
3390.191,0.50119153
3391.846,0.50109704
3393.502,0.50081603
3395.16,0.50031686
3396.82,0.4995966
3398.481,0.49872618
3400.144,0.49768242
3401.809,0.49638262
3403.475,0.49488867
3405.143,0.49330624
3406.812,0.49155061
3408.483,0.48947347
3410.156,0.48718865
3411.83,0.48501395
3413.506,0.48317328
3415.183,0.48175589
3416.862,0.48088481
3418.543,0.48070851
3420.226,0.48127562
3421.91,0.48253168
3423.596,0.48435673
3425.283,0.48652016
3426.972,0.48872526
3428.663,0.49080353
3430.355,0.49278174
3432.049,0.49470218
3433.745,0.49652375
3435.442,0.49823826
3437.141,0.4999292
3438.842,0.50161632
3440.545,0.5031593
3442.249,0.50437803
3443.954,0.50518645
3445.662,0.5055907
3447.371,0.50570764
3449.082,0.50580425
3450.794,0.50615883
3452.509,0.50681393
3454.224,0.50757813
3455.942,0.50826472
3457.661,0.50882234
3459.382,0.50928134
3461.105,0.50970887
3462.829,0.5101606
3464.556,0.51056544
3466.283,0.51074447
3468.013,0.51063454
3469.744,0.5103796
3471.477,0.5101356
3473.212,0.50993779
3474.948,0.50978921
3476.686,0.50968827
3478.426,0.50954583
3480.168,0.50926353
3481.911,0.50890009
3483.656,0.50861235
3485.403,0.50848484
3487.152,0.50851506
3488.902,0.50860737
3490.654,0.50847648
3492.408,0.50778113
3494.164,0.50648458
3495.921,0.50490093
3497.68,0.50334726
3499.441,0.50198654
3501.204,0.50099361
3502.968,0.50058271
3504.734,0.50083983
3506.502,0.50173243
3508.272,0.5032141
3510.043,0.50513218
3511.817,0.50717306
3513.592,0.50909775
3515.368,0.51088318
3517.147,0.51252789
3518.927,0.51394194
3520.71,0.51511101
3522.494,0.51611211
3524.28,0.51692415
3526.067,0.51749041
3527.857,0.51796679
3529.648,0.51861093
3531.441,0.51943868
3533.236,0.52021832
3535.032,0.52075351
3536.831,0.52097469
3538.631,0.52088588
3540.433,0.52061262
3542.237,0.5203869
3544.043,0.5203293
3545.851,0.52037378
3547.66,0.52045612
3549.471,0.52060856
3551.284,0.52080777
3553.099,0.52093613
3554.916,0.52094198
3556.735,0.52089637
3558.555,0.52086037
3560.378,0.52084125
3562.202,0.52085797
3564.028,0.52093515
3565.856,0.5210543
3567.686,0.52119227
3569.518,0.52134095
3571.351,0.52143022
3573.187,0.52134734
3575.024,0.52109878
3576.863,0.52085482
3578.704,0.52078697
3580.547,0.52092498
3582.392,0.52118512
3584.239,0.52142756
3586.088,0.52151634
3587.938,0.52142775
3589.791,0.52130184
3591.645,0.52130075
3593.501,0.52144389
3595.359,0.52162108
3597.22,0.52168874
3599.082,0.52152632
3600.946,0.52113072
3602.811,0.5206796
3604.679,0.52038187
3606.549,0.52026123
3608.421,0.52022554
3610.294,0.52028328
3612.17,0.52050763
3614.047,0.52084354
3615.926,0.52112446
3617.808,0.52123683
3619.691,0.5211497
3621.576,0.52089399
3623.463,0.52061361
3625.353,0.5204859
3627.244,0.52052161
3629.137,0.52058148
3631.032,0.52060089
3632.929,0.52059997
3634.828,0.52052963
3636.729,0.52032691
3638.632,0.52008119
3640.537,0.51992999
3642.444,0.51987565
3644.353,0.51987895
3646.263,0.51998969
3648.176,0.52021544
3650.091,0.52041787
3652.008,0.5204732
3653.927,0.52038874
3655.848,0.52020717
3657.771,0.51996152
3659.696,0.51973196
3661.623,0.51958192
3663.552,0.5194592
3665.483,0.51929892
3667.416,0.51913929
3669.351,0.51903584
3671.288,0.5189626
3673.227,0.51890835
3675.168,0.51893382
3677.111,0.51906711
3679.057,0.51924014
3681.004,0.51935994
3682.953,0.5193578
3684.905,0.51920399
3686.858,0.51895654
3688.814,0.51874303
3690.771,0.51862714
3692.731,0.51856916
3694.693,0.51853328
3696.656,0.51854196
3698.622,0.51860808
3700.59,0.51870476
3702.56,0.51878978
3704.532,0.51880765
3706.507,0.51869774
3708.483,0.5184599
3710.461,0.5181698
3712.442,0.51791601
3714.425,0.51774716
3716.409,0.5176815
3718.396,0.51770639
3720.385,0.51777455
3722.376,0.51782524
3724.37,0.51782884
3726.365,0.51781206
3728.362,0.51783167
3730.362,0.51789361
3732.364,0.51793156
3734.368,0.51789967
3736.374,0.5178495
3738.382,0.51785618
3740.392,0.51795208
3742.405,0.51815583
3744.419,0.51843907
3746.436,0.51865044
3748.455,0.51865271
3750.476,0.51852201
3752.499,0.51841978
3754.525,0.51834162
3756.553,0.51823756
3758.582,0.51821513
3760.614,0.51835992
3762.649,0.5185314
3764.685,0.51859556
3766.724,0.51861549
3768.764,0.51862157
3770.807,0.51850641
3772.853,0.51830318
3774.9,0.51818489
3776.95,0.51811836
3779.001,0.51792459
3781.056,0.51769113
3783.112,0.5176514
3785.17,0.51774568
3787.231,0.51775539
3789.294,0.5177095
3791.359,0.51773244
3793.427,0.51773624
3795.496,0.51763824
3797.568,0.51758349
3799.643,0.51763553
3801.719,0.5176153
3803.798,0.51746394
3805.879,0.51736798
3807.962,0.51737079
3810.048,0.51729795
3812.135,0.5171358
3814.225,0.51706375
3816.318,0.51710164
3818.412,0.51710322
3820.509,0.51704137
3822.609,0.51697883
3824.71,0.51687671
3826.814,0.5167088
3828.92,0.51660192
3831.029,0.51663868
3833.139,0.51669187
3835.252,0.51662529
3837.368,0.5164839
3839.486,0.51638806
3841.606,0.51638871
3843.728,0.51647981
3845.853,0.51662864
3847.98,0.51676498
3850.109,0.51682989
3852.241,0.51684251
3854.375,0.51687289
3856.512,0.51696627
3858.65,0.51709698
3860.792,0.51718794
3862.935,0.51718841
3865.081,0.51713712
3867.229,0.51710789
3869.38,0.51712553
3871.533,0.51718411
3873.689,0.51729977
3875.846,0.51745516
3878.007,0.51757155
3880.169,0.51761848
3882.334,0.51766589
3884.502,0.51774836
3886.672,0.51780978
3888.844,0.51784516
3891.019,0.51794978
3893.196,0.51814548
3895.375,0.51832118
3897.557,0.51841461
3899.742,0.51849035
3901.929,0.51857051
3904.118,0.51858638
3906.31,0.51855772
3908.504,0.5186206
3910.7,0.51880195
3912.9,0.51896681
3915.101,0.51903319
3917.305,0.51905314
3919.512,0.5190568
3921.721,0.51903246
3923.932,0.51905624
3926.146,0.51920924
3928.363,0.51939018
3930.581,0.51944693
3932.803,0.51942714
3935.027,0.51946449
3937.253,0.51951869
3939.482,0.51949893
3941.714,0.51948962
3943.948,0.51961131
3946.184,0.51980322
3948.423,0.51997431
3950.665,0.52016296
3952.909,0.52037546
3955.156,0.52049812
3957.405,0.52052964
3959.657,0.52064823
3961.911,0.52093018
3964.168,0.52125728
3966.427,0.52154775
3968.689,0.52181745
3970.954,0.52202276
3973.221,0.52210928
3975.491,0.52218756
3977.763,0.52241218
3980.038,0.52275725
3982.315,0.52308217
3984.595,0.5233233
3986.878,0.52347918
3989.163,0.52353828
3991.451,0.52352493
3993.742,0.52350554
3996.035,0.52349932
3998.33,0.52349029
4000.629,0.52351396
4002.93,0.52362708
4005.233,0.52383607
4007.54,0.52411912
4009.849,0.5244319
4012.16,0.52467396
4014.475,0.52475975
4016.791,0.52473204
4019.111,0.5247021
4021.433,0.52471943
4023.758,0.52476801
4026.086,0.5248186
4028.416,0.52483158
4030.749,0.52479975
4033.085,0.52481753
4035.423,0.52499226
4037.764,0.52529542
4040.108,0.52562583
4042.454,0.52597235
4044.804,0.52637121
4047.155,0.52675976
4049.51,0.52704116
4051.867,0.52723401
4054.228,0.52743384
4056.59,0.52766846
4058.956,0.52790826
4061.324,0.52815637
4063.695,0.52843044
4066.069,0.52869785
4068.446,0.52892649
4070.825,0.52916248
4073.207,0.52946832
4075.592,0.52980779
4077.98,0.53010676
4080.371,0.53039578
4082.764,0.53075538
4085.16,0.53114023
4087.559,0.53142791
4089.961,0.53163169
4092.365,0.53186844
4094.773,0.53215618
4097.183,0.53244357
4099.596,0.53276593
4102.012,0.53314824
4104.43,0.53348173
4106.852,0.5337184
4109.276,0.53400047
4111.703,0.53439669
4114.133,0.5347704
4116.566,0.53507404
4119.002,0.53544695
4121.441,0.53588143
4123.882,0.5361913
4126.327,0.53640235
4128.774,0.53673653
4131.224,0.53719107
4133.677,0.53756854
4136.133,0.53787072
4138.592,0.53823549
4141.054,0.53863747
4143.519,0.53903446
4145.987,0.53956267
4148.457,0.54025278
4150.931,0.54088623
4153.407,0.54136427
4155.887,0.54183173
4158.369,0.54231298
4160.854,0.54267063
4163.343,0.54295863
4165.834,0.54335124
4168.328,0.54380134
4170.826,0.54418241
4173.326,0.54457484
4175.829,0.54504912
4178.335,0.54548008
4180.844,0.54586168
4183.356,0.54640395
4185.872,0.54713799
4188.39,0.54788565
4190.911,0.54868209
4193.435,0.54975843
4195.963,0.5511855
4198.493,0.55299166
4201.026,0.55543311
4203.563,0.55868322
4206.102,0.56254009
4208.645,0.5668464
4211.19,0.57174056
4213.739,0.57708941
4216.291,0.58227042
4218.846,0.58695554
4221.404,0.59140061
4223.965,0.59567392
4226.529,0.59950808
4229.096,0.6030066
4231.666,0.60636069
4234.24,0.60905962
4236.816,0.61052874
4239.396,0.61107509
4241.979,0.61098435
4244.565,0.60952436
4247.154,0.60586391
4249.746,0.60032799
4252.341,0.59423551
4254.94,0.58932426
4257.542,0.58730982
4260.146,0.58912392
4262.754,0.59415991
4265.366,0.60038262
4267.98,0.60558768
4270.598,0.60873489
4273.219,0.61000161
4275.843,0.61013565
4278.47,0.61005619
4281.1,0.61035779
4283.734,0.61099938
4286.371,0.61171621
4289.011,0.61240696
4291.655,0.61282709
4294.301,0.61256078
4296.951,0.61167704
4299.604,0.6108522
4302.261,0.61050056
4304.92,0.61032149
4307.583,0.60984888
4310.25,0.60896251
4312.919,0.60773411
4315.592,0.60631078
4318.268,0.60504141
4320.948,0.60426071
4323.631,0.60386881
4326.317,0.6034642
4329.006,0.60284859
4331.699,0.60208437
4334.395,0.60120078
4337.095,0.60024293
4339.797,0.59948544
4342.504,0.59919683
4345.213,0.59929548
4347.926,0.59956459
4350.642,0.59997241
4353.362,0.60048765
4356.085,0.6009022
4358.811,0.60116563
4361.541,0.60155182
4364.275,0.60221667
4367.011,0.60298808
4369.751,0.60377059
4372.495,0.60464315
4375.242,0.60548535
4377.992,0.60609355
4380.746,0.60667743
4383.504,0.60761788
4386.264,0.60883729
4389.029,0.61002204
4391.796,0.6112133
4394.567,0.61252029
4397.342,0.61366997
4400.12,0.61451579
4402.902,0.61546011
4405.687,0.61675747
4408.476,0.61805281
4411.268,0.61912907
4414.064,0.62029395
4416.863,0.62162343
4419.666,0.62274289
4422.472,0.62362239
4425.282,0.62463084
4428.096,0.62571309
4430.913,0.6265288
4433.734,0.62728665
4436.558,0.6283813
4439.386,0.62950899
4442.217,0.63016514
4445.052,0.63059997
4447.891,0.63129709
4450.733,0.63212578
4453.579,0.63283413
4456.428,0.63367741
4459.281,0.63479646
4462.138,0.63577
4464.998,0.63638622
4467.863,0.63706145
4470.73,0.63803042
4473.602,0.63896138
4476.477,0.63965074
4479.355,0.6403154
4482.238,0.64102166
4485.124,0.64158787
4488.014,0.64206932
4490.908,0.6427158
4493.805,0.6434884
4496.706,0.64414204
4499.611,0.64469035
4502.519,0.64535422
4505.431,0.64616124
4508.347,0.64690846
4511.267,0.64747434
4514.191,0.64793853
4517.118,0.64842467
4520.049,0.64894423
4522.984,0.64947893
4525.923,0.65010657
4528.865,0.65085776
4531.812,0.65152182
4534.762,0.65189754
4537.716,0.65218094
4540.674,0.65269278
4543.635,0.65335116
4546.601,0.6538802
4549.57,0.65438983
4552.543,0.6551449
4555.521,0.65601361
4558.502,0.656741
4561.487,0.65746579
4564.475,0.6582884
4567.468,0.65880069
4570.465,0.65876133
4573.465,0.65877088
4576.47,0.65937096
4579.478,0.6601878
4582.491,0.66077979
4585.507,0.66136991
4588.527,0.66206874
4591.551,0.66246363
4594.58,0.66257356
4597.612,0.66309075
4600.648,0.6641469
4603.688,0.66499596
4606.732,0.66527807
4609.781,0.66543362
4612.833,0.66560445
4615.889,0.66545258
4618.949,0.66517817
4622.014,0.66542417
4625.082,0.66600761
4628.155,0.66617874
4631.231,0.66605413
4634.312,0.66641027
4637.397,0.66712015
4640.485,0.66743838
4643.578,0.66747672
4646.675,0.66778811
4649.777,0.66811656
4652.882,0.66790866
4655.991,0.66759248
4659.105,0.6679311
4662.223,0.66864328
4665.345,0.66912332
4668.471,0.66972509
4671.601,0.67088364
4674.735,0.67203994
4677.874,0.67265212
4681.017,0.67310553
4684.164,0.67353321
4687.315,0.67327989
4690.471,0.67246025
4693.63,0.67236572
4696.794,0.67346942
4699.962,0.67475807
4703.135,0.67558278
4706.312,0.67641887
4709.493,0.67740567
4712.678,0.67798801
4715.868,0.67824417
4719.062,0.67886063
4722.26,0.67979804
4725.463,0.68050938
4728.669,0.68115694
4731.881,0.68217368
4735.096,0.68319987
4738.316,0.68370807
4741.541,0.6840225
4744.769,0.68466575
4748.002,0.68550104
4751.24,0.68626229
4754.482,0.6871122
4757.728,0.68809627
4760.979,0.68887591
4764.234,0.68937417
4767.494,0.6899588
4770.758,0.69077689
4774.026,0.69159909
4777.299,0.69230669
4780.577,0.69298675
4783.859,0.69361583
4787.145,0.69408669
4790.436,0.69441128
4793.732,0.69468451
4797.032,0.6949779
4800.336,0.69534403
4803.645,0.69577785
4806.959,0.69621017
4810.277,0.69668706
4813.6,0.69737049
4816.927,0.69820035
4820.259,0.69883137
4823.596,0.6990407
4826.937,0.69892195
4830.283,0.69868983
4833.633,0.69862716
4836.988,0.69902958
4840.348,0.69981791
4843.712,0.70049878
4847.081,0.70089736
4850.455,0.70146829
4853.833,0.70250374
4857.216,0.70359585
4860.604,0.70430344
4863.996,0.70479096
4867.393,0.7053495
4870.795,0.70581404
4874.202,0.70597012
4877.613,0.70608663
4881.03,0.7065414
4884.451,0.70733176
4887.876,0.70834972
4891.307,0.70961966
4894.742,0.71095138
4898.182,0.71190583
4901.627,0.71246933
4905.077,0.71320059
4908.532,0.71421801
4911.991,0.71487708
4915.456,0.71494613
4918.925,0.71512037
4922.399,0.71588055
4925.878,0.71691722
4929.362,0.71798673
4932.851,0.71916727
4936.345,0.72012122
4939.844,0.72038684
4943.347,0.72047658
4946.856,0.72132848
4950.37,0.72277983
4953.888,0.72386353
4957.412,0.72433342
4960.941,0.7246422
4964.474,0.72488986
4968.013,0.72502456
4971.556,0.72548067
4975.105,0.72649776
4978.659,0.727386
4982.218,0.72756591
4985.782,0.72762128
4989.351,0.72823389
4992.925,0.72907389
4996.504,0.72968781
5000.088,0.7303719
5003.678,0.73136021
5007.272,0.73234357
5010.872,0.73331751
5014.477,0.73469553
5018.087,0.73619427
5021.703,0.73690766
5025.323,0.73672478
5028.949,0.73645879
5032.58,0.73651225
5036.216,0.73662629
5039.857,0.73678035
5043.504,0.73721973
5047.156,0.73776937
5050.813,0.73806501
5054.475,0.73823465
5058.143,0.73858024
5061.816,0.73895127
5065.495,0.7391222
5069.179,0.73937918
5072.868,0.74011528
5076.562,0.7411746
5080.262,0.74206224
5083.967,0.74251464
5087.678,0.74256939
5091.394,0.74237132
5095.115,0.7421754
5098.842,0.7422821
5102.574,0.74276069
5106.312,0.74337127
5110.055,0.74384505
5113.804,0.74415351
5117.558,0.74445148
5121.318,0.74483903
5125.083,0.74526735
5128.854,0.7457486
5132.63,0.746551
5136.412,0.74795355
5140.199,0.74978034
5143.992,0.75140915
5147.791,0.75228089
5151.595,0.75225795
5155.405,0.75161601
5159.22,0.75097458
5163.041,0.75101867
5166.868,0.7518982
5170.7,0.75307503
5174.538,0.75406632
5178.382,0.75501473
5182.231,0.75623115
5186.086,0.75772651
5189.947,0.75953506
5193.814,0.76182937
5197.686,0.76437751
5201.564,0.76662168
5205.448,0.76848204
5209.338,0.77019038
5213.233,0.77130772
5217.134,0.77117821
5221.041,0.7704014
5224.954,0.77044733
5228.873,0.77179929
5232.798,0.77368099
5236.728,0.77539328
5240.665,0.77680146
5244.607,0.77777387
5248.555,0.7783053
5252.51,0.7789356
5256.47,0.78008238
5260.436,0.78143828
5264.408,0.78273429
5268.386,0.78429101
5272.37,0.78618212
5276.36,0.78789631
5280.356,0.78938774
5284.358,0.79126285
5288.367,0.79342137
5292.381,0.79482755
5296.401,0.79511
5300.428,0.79510454
5304.46,0.79546357
5308.499,0.7960522
5312.544,0.7968059
5316.595,0.79793023
5320.652,0.79918653
5324.715,0.80008704
5328.785,0.8008344
5332.86,0.80220026
5336.942,0.8045998
5341.031,0.80785291
5345.125,0.81134708
5349.226,0.8138627
5353.333,0.81409022
5357.446,0.81218005
5361.566,0.80993782
5365.692,0.80888354
5369.824,0.8089791
5373.962,0.80942821
5378.107,0.8098566
5382.259,0.81025582
5386.417,0.81054134
5390.581,0.81074873
5394.751,0.81119747
5398.928,0.81208907
5403.112,0.81346544
5407.302,0.81567506
5411.498,0.81908925
5415.701,0.82297701
5419.911,0.82543865
5424.127,0.82521825
5428.349,0.82308712
5432.579,0.82074679
5436.814,0.8192788
5441.057,0.81908635
5445.305,0.82026331
5449.561,0.82259208
5453.823,0.82583113
5458.092,0.82995185
5462.368,0.83438153
5466.65,0.83756325
5470.939,0.83864967
5475.234,0.83884228
5479.537,0.8393801
5483.846,0.83960692
5488.162,0.83872881
5492.484,0.83770361
5496.814,0.83768189
5501.15,0.83886823
5505.493,0.84206031
5509.843,0.84841148
5514.2,0.85674308
5518.564,0.86415418
5522.934,0.86950426
5527.312,0.87340743
5531.696,0.87597318
5536.087,0.87812634
5540.486,0.88077389
5544.891,0.87725081
5549.303,0.85511355
5553.723,0.80939883
5558.149,0.76294179
5562.582,0.71378854
5567.023,0.67555148
5571.47,0.65944504
5575.925,0.65656538
5580.387,0.67997139
5584.856,0.71552467
5589.332,0.74050367
5593.815,0.75333081
5598.305,0.76289528
5602.803,0.77068745
5607.307,0.77396084
5611.819,0.77756924
5616.339,0.78526725
5620.865,0.79230982
5625.399,0.794585
5629.94,0.79666887
5634.489,0.80174302
5639.044,0.80534621
5643.607,0.80442034
5648.178,0.80376442
5652.756,0.80544721
5657.341,0.80561284
5661.934,0.80390005
5666.534,0.8050797
5671.142,0.80933652
5675.757,0.81159353
5680.379,0.81115927
5685.01,0.81223873
5689.647,0.8147027
5694.293,0.81511028
5698.945,0.81514305
5703.606,0.818864
5708.274,0.82426142
5712.949,0.82613063
5717.633,0.82570321
5722.324,0.8271329
5727.022,0.8291248
5731.729,0.82873066
5736.443,0.82843751
5741.165,0.8309429
5745.894,0.83343734
5750.631,0.83364614
5755.377,0.83548729
5760.13,0.84109413
5764.89,0.84514866
5769.659,0.84392355
5774.436,0.84204326
5779.22,0.84215425
5784.012,0.8408677
5788.813,0.83775101
5793.621,0.83738015
5798.437,0.84053972
5803.262,0.84327256
5808.094,0.84565896
5812.934,0.85140333
5817.782,0.85838074
5822.639,0.86001752
5827.503,0.85741203
5832.376,0.85623713
5837.257,0.85599937
5842.146,0.85412161
5847.043,0.85387297
5851.948,0.85811919
5856.862,0.86285296
5861.783,0.86413884
5866.714,0.86571587
5871.652,0.87036017
5876.598,0.87380199
5881.553,0.87309352
5886.517,0.87241823
5891.488,0.87275971
5896.468,0.86992978
5901.457,0.86498419
5906.454,0.86363075
5911.459,0.86571988
5916.473,0.8671115
5921.495,0.86862081
5926.526,0.87359638
5931.565,0.87875845
5936.613,0.87793784
5941.67,0.87364358
5946.735,0.87157319
5951.809,0.87106343
5956.891,0.8701574
5961.982,0.87093225
5967.082,0.87392737
5972.19,0.87534271
5977.307,0.87418015
5982.433,0.87420708
5987.568,0.87559572
5992.711,0.87453176
5997.864,0.87179592
6003.025,0.87158699
6008.195,0.87315027
6013.374,0.87245482
6018.562,0.87047867
6023.759,0.87127221
6028.964,0.87497818
6034.179,0.87935881
6039.403,0.88419434
6044.636,0.8884588
6049.878,0.88870319
6055.129,0.88582814
6060.389,0.88516347
6065.658,0.88724541
6070.936,0.88751693
6076.224,0.8843837
6081.52,0.88142338
6086.826,0.88072172
6092.141,0.88150215
6097.466,0.8839377
6102.8,0.88819887
6108.143,0.89117245
6113.495,0.8899707
6118.857,0.88696941
6124.228,0.88556038
6129.609,0.88554599
6134.999,0.88603241
6140.398,0.8877436
6145.807,0.89031829
6151.226,0.89144268
6156.654,0.89068789
6162.091,0.89029458
6167.539,0.89123358
6172.996,0.8923271
6178.462,0.89295977
6183.938,0.89332372
6189.424,0.89284102
6194.92,0.8913442
6200.425,0.89036162
6205.94,0.89081881
6211.465,0.89155467
6217.0,0.89153575
6222.544,0.89166856
6228.099,0.89264164
6233.663,0.89339984
6239.237,0.89318724
6244.822,0.89295866
6250.416,0.89340712
6256.02,0.89393221
6261.635,0.89429139
6267.259,0.89513964
6272.893,0.89620528
6278.538,0.89636981
6284.193,0.89583193
6289.858,0.89597258
6295.533,0.89691403
6301.218,0.89766998
6306.914,0.89827576
6312.619,0.89949047
6318.336,0.90102119
6324.062,0.90234169
6329.799,0.90397047
6335.546,0.90589703
6341.304,0.90655498
6347.072,0.90589091
6352.851,0.90634722
6358.64,0.90872918
6364.44,0.91069733
6370.25,0.91060534
6376.071,0.90966382
6381.903,0.90914672
6387.745,0.90932436
6393.598,0.91133602
6399.461,0.91604518
6405.335,0.92079737
6411.221,0.92157309
6417.116,0.91922204
6423.023,0.91712713
6428.941,0.91557515
6434.869,0.91407206
6440.809,0.91391207
6446.759,0.91523686
6452.72,0.91605872
6458.693,0.9162697
6464.676,0.9182073
6470.671,0.92191686
6476.676,0.9245046
6482.693,0.92498875
6488.721,0.92486841
6494.76,0.92402522
6500.81,0.92209367
6506.872,0.92134903
6512.945,0.92287146
6519.029,0.92405787
6525.124,0.92317971
6531.231,0.92251606
6537.35,0.92361502
6543.48,0.92477678
6549.621,0.92528489
6555.774,0.9268532
6561.938,0.92921892
6568.114,0.92992294
6574.302,0.92935666
6580.501,0.92973927
6586.712,0.93027151
6592.934,0.9292172
6599.169,0.92822266
6605.415,0.92946316
6611.673,0.93192431
6617.943,0.93385147
6624.224,0.93551558
6630.518,0.93647104
6636.823,0.93470032
6643.141,0.93138302
6649.47,0.93027515
6655.812,0.93181682
6662.166,0.93334993
6668.532,0.93366912
6674.91,0.9337865
6681.3,0.93385274
6687.702,0.93345963
6694.117,0.93385269
6700.544,0.93586897
6706.983,0.93755664
6713.435,0.93703032
6719.899,0.93558558
6726.375,0.93492466
6732.864,0.93458314
6739.365,0.93418439
6745.879,0.93476771
6752.406,0.93648414
6758.945,0.93799789
6765.497,0.93901286
6772.062,0.94035386
6778.639,0.94136464
6785.229,0.94052326
6791.832,0.93869842
6798.448,0.93799121
6805.076,0.9384551
6811.718,0.93895489
6818.372,0.93950469
6825.039,0.94048345
6831.72,0.94136207
6838.413,0.94204046
6845.12,0.94339022
6851.84,0.94506028
6858.573,0.94509134
6865.319,0.94332931
6872.078,0.9419342
6878.851,0.94171352
6885.637,0.94173148
6892.437,0.94178553
6899.25,0.94233149
6906.076,0.94274191
6912.916,0.94222968
6919.769,0.94169442
6926.636,0.94223603
6933.517,0.9433259
6940.411,0.9441176
6947.319,0.94487681
6954.241,0.9456484
6961.176,0.94565641
6968.125,0.94518654
6975.089,0.94548691
6982.066,0.94642503
6989.057,0.94676301
6996.062,0.94651373
7003.081,0.94670735
7010.114,0.94734496
7017.161,0.94786236
7024.223,0.94866395
7031.298,0.95009735
7038.388,0.95112842
7045.492,0.95096474
7052.611,0.95048816
7059.743,0.95048023
7066.891,0.95048577
7074.052,0.95025815
7081.229,0.95035406
7088.419,0.95086023
7095.625,0.95122125
7102.845,0.95147915
7110.079,0.95214209
7117.329,0.95303692
7124.593,0.95367181
7131.872,0.95423789
7139.166,0.95508556
7146.475,0.95583368
7153.799,0.95596665
7161.137,0.95567792
7168.491,0.95545249
7175.86,0.95540926
7183.244,0.9555067
7190.643,0.95579342
7198.058,0.95620573
7205.487,0.95648657
7212.933,0.95649268
7220.393,0.95639821
7227.869,0.95649512
7235.36,0.95688098
7242.867,0.95742122
7250.39,0.95800852
7257.928,0.95862521
7265.481,0.95909184
7273.051,0.95916469
7280.636,0.95902119
7288.237,0.95909512
7295.854,0.9594066
7303.487,0.95969355
7311.135,0.96007334
7318.8,0.9607852
7326.481,0.96147827
7334.178,0.96163249
7341.891,0.96142378
7349.62,0.96131361
7357.366,0.96132508
7365.128,0.96140175
7372.906,0.96178806
7380.701,0.96245697
7388.512,0.96297871
7396.34,0.96327184
7404.184,0.96368146
7412.045,0.96417942
7419.922,0.96444187
7427.817,0.96459924
7435.728,0.96502795
7443.656,0.96564197
7451.601,0.96613525
7459.562,0.96648472
7467.541,0.96670447
7475.537,0.96665956
7483.55,0.96648047
7491.58,0.9665159
7499.628,0.96676909
7507.692,0.96698151
7515.774,0.96714101
7523.874,0.96736693
7531.99,0.96757944
7540.125,0.96773159
7548.277,0.96795737
7556.446,0.96823808
7564.633,0.96840268
7572.838,0.96849926
7581.061,0.96864848
7589.302,0.96872122
7597.56,0.96863401
7605.837,0.96860202
7614.131,0.96870657
7622.444,0.96872717
7630.774,0.96863647
7639.123,0.96866519
7647.491,0.96879254
7655.876,0.96883058
7664.28,0.96891098
7672.702,0.96923815
7681.143,0.9696146
7689.602,0.96979523
7698.08,0.96991093
7706.577,0.97007729
7715.093,0.97012133
7723.627,0.97004432
7732.18,0.97014982
7740.752,0.97047667
7749.343,0.97075013
7757.953,0.97091402
7766.583,0.9711477
7775.231,0.9714021
7783.899,0.97152144
7792.586,0.9716265
7801.292,0.9719011
7810.018,0.97225403
7818.764,0.97256598
7827.529,0.97294014
7836.313,0.97342747
7845.117,0.97385385
7853.942,0.9741286
7862.786,0.97439431
7871.649,0.97476114
7880.533,0.97517948
7889.437,0.97561353
7898.361,0.97605508
7907.305,0.97640518
7916.27,0.97656246
7925.254,0.97661919
7934.26,0.97674568
7943.285,0.97697851
7952.331,0.97724649
7961.398,0.977545
7970.485,0.97789779
7979.594,0.97824333
7988.723,0.97849023
7997.872,0.97866158
8007.043,0.97884144
8016.235,0.97904861
8025.448,0.97925483
8034.682,0.97947881
8043.937,0.97972798
8053.214,0.9799433
8062.512,0.98007988
8071.832,0.98015982
8081.173,0.98019779
8090.535,0.98020664
8099.92,0.98029535
8109.326,0.98056354
8118.754,0.98091172
8128.204,0.98115256
8137.676,0.9812641
8147.169,0.9813472
8156.686,0.98144153
8166.224,0.98157403
8175.785,0.98183147
8185.368,0.98219722
8194.973,0.98250417
8204.601,0.9826781
8214.252,0.9828136
8223.925,0.98295237
8233.621,0.98304574
8243.34,0.98315106
8253.082,0.98338508
8262.847,0.98371592
8272.635,0.98402
8282.446,0.98428878
8292.281,0.98456426
8302.139,0.98481936
8312.02,0.98504086
8321.925,0.98529707
8331.853,0.98560222
8341.805,0.98587626
8351.781,0.98609965
8361.781,0.98634718
8371.804,0.98664728
8381.852,0.98693405
8391.924,0.98714366
8402.02,0.98729939
8412.14,0.9874583
8422.285,0.98764225
8432.454,0.98782818
8442.648,0.98801075
8452.866,0.98821621
8463.109,0.98843221
8473.377,0.98861419
8483.67,0.98878853
8493.988,0.98900722
8504.331,0.98921849
8514.699,0.98935154
8525.092,0.98948643
8535.511,0.98971206
8545.955,0.98995029
8556.425,0.99012688
8566.921,0.99034806
8577.442,0.99066944
8587.989,0.99096197
8598.562,0.9911699
8609.161,0.99141054
8619.786,0.99169895
8630.437,0.99194794
8641.115,0.99222823
8651.819,0.9926712
8662.55,0.99317469
8673.307,0.99358814
8684.091,0.9939895
8694.902,0.99446112
8705.739,0.99490665
8716.604,0.99531306
8727.496,0.99582541
8738.415,0.99642231
8749.361,0.99692929
8760.335,0.99736029
8771.336,0.99783676
8782.365,0.99830232
8793.422,0.9986985
8804.507,0.99916554
8815.619,0.9997518
8826.76,0.010003115
8837.928,0.0100083925
8849.125,0.0100145412
8860.351,0.0100204504
8871.604,0.0100243885
8882.887,0.0100279161
8894.198,0.0100329697
8905.538,0.0100381052
8916.907,0.0100419797
8928.305,0.0100460868
8939.732,0.0100505457
8951.188,0.0100530301
8962.673,0.0100538912
8974.189,0.0100557301
8985.733,0.0100579073
8997.308,0.0100580463
9008.912,0.0100574886
9020.546,0.0100582982
9032.21,0.010058569
9043.905,0.0100565664
9055.629,0.0100548235
9067.384,0.0100549688
9079.17,0.0100548473
9090.986,0.0100536336
9102.833,0.0100533303
9114.711,0.0100531791
9126.62,0.0100503105
9138.56,0.010045724
9150.531,0.0100427361
9162.534,0.0100409074
9174.568,0.0100380957
9186.634,0.0100352872
9198.731,0.0100340919
9210.86,0.0100330381
9223.022,0.0100311056
9235.215,0.0100300699
9247.441,0.0100305565
9259.699,0.0100303386
9271.99,0.0100286875
9284.313,0.0100274498
9296.669,0.01002733
9309.058,0.0100270971
9321.48,0.0100265662
9333.935,0.0100265885
9346.423,0.0100270312
9358.945,0.0100273431
9371.5,0.0100283289
9384.089,0.010030846
9396.712,0.0100341274
9409.369,0.0100367857
9422.06,0.0100386724
9434.785,0.0100403775
9447.545,0.0100421364
9460.339,0.0100439347
9473.167,0.0100461262
9486.031,0.0100486925
9498.929,0.0100508187
9511.863,0.0100518819
9524.832,0.0100524572
9537.836,0.0100533534
9550.876,0.0100544714
9563.951,0.0100554418
9577.062,0.0100565123
9590.209,0.0100576543
9603.393,0.0100581366
9616.612,0.0100578509
9629.868,0.0100577576
9643.16,0.0100583262
9656.49,0.0100592688
9669.856,0.0100607404
9683.259,0.0100630576
9696.699,0.0100652819
9710.176,0.0100662425
9723.691,0.0100661568
9737.244,0.0100658031
9750.834,0.0100651506
9764.463,0.0100642745
9778.129,0.0100638496
9791.834,0.010063739
9805.577,0.0100629641
9819.359,0.0100618368
9833.18,0.0100615342
9847.039,0.0100619326
9860.938,0.0100618826
9874.875,0.0100614178
9888.853,0.010061216
9902.869,0.0100610365
9916.926,0.0100603376
9931.022,0.0100596017
9945.159,0.0100591905
9959.336,0.0100586728
9973.553,0.0100581729
9987.811,0.0100588776
10002.109,0.0100610304
10016.449,0.0100633751
10030.83,0.0100648946
10045.252,0.0100659074
10059.715,0.0100667865
10074.221,0.0100674008
10088.768,0.0100681046
10103.357,0.0100698972
10117.988,0.0100728286
10132.662,0.0100758769
10147.378,0.0100784468
10162.137,0.0100810118
10176.939,0.0100838892
10191.784,0.0100868381
10206.672,0.0100899946
10221.604,0.0100937711
10236.58,0.010097479
10251.6,0.0101000113
10266.663,0.010101813
10281.771,0.0101042279
10296.924,0.0101070844
10312.121,0.0101093287
10327.363,0.0101111628
10342.65,0.0101133835
10357.982,0.0101153742
10373.36,0.0101164156
10388.784,0.0101172774
10404.253,0.0101186717
10419.769,0.0101198285
10435.331,0.0101204632
10450.939,0.0101213378
10466.594,0.0101220675
10482.296,0.0101214061
10498.045,0.0101199105
10513.842,0.0101191671
10529.686,0.0101191857
10545.577,0.0101194807
10561.517,0.01012084
10577.505,0.01012325
10593.542,0.0101249044
10609.627,0.0101253226
10625.761,0.0101260243
10641.944,0.0101269697
10658.176,0.0101267102
10674.458,0.0101257513
10690.79,0.010125528
10707.172,0.0101253587
10723.604,0.0101247866
10740.086,0.0101255281
10756.619,0.0101278523
10773.203,0.0101291543
10789.839,0.0101289154
10806.525,0.0101291748
10823.264,0.01012957
10840.054,0.010128208
10856.896,0.0101267819
10873.791,0.0101277425
10890.738,0.0101292513
10907.738,0.0101291296
10924.791,0.0101295199
10941.898,0.0101316007
10959.058,0.0101324556
10976.272,0.0101313737
10993.541,0.0101317282
11010.863,0.0101337831
11028.24,0.0101344249
11045.672,0.0101340508
11063.16,0.0101351581
11080.702,0.0101359182
11098.301,0.0101341923
11115.955,0.0101331754
11133.665,0.0101353388
11151.432,0.0101370217
11169.256,0.01013565
11187.137,0.0101341369
11205.075,0.0101340036
11223.07,0.0101326672
11241.124,0.0101303086
11259.235,0.0101299141
11277.405,0.010130805
11295.634,0.0101303679
11313.921,0.0101300228
11332.268,0.0101315243
11350.675,0.0101321219
11369.141,0.0101295518
11387.667,0.0101264673
11406.254,0.0101250045
11424.901,0.0101235709
11443.61,0.0101213809
11462.38,0.0101200799
11481.211,0.0101195894
11500.105,0.0101181955
11519.06,0.0101163568
11538.079,0.0101156034
11557.16,0.0101151902
11576.304,0.0101137975
11595.511,0.0101120588
11614.783,0.0101109498
11634.118,0.0101100243
11653.518,0.0101090202
11672.983,0.0101087042
11692.513,0.0101093418
11712.108,0.0101098746
11731.769,0.0101096335
11751.496,0.0101091911
11771.29,0.01010941
11791.15,0.0101102553
11811.077,0.0101114264
11831.072,0.0101130716
11851.134,0.0101154292
11871.265,0.0101177149
11891.464,0.0101192342
11911.731,0.0101204369
11932.068,0.0101216755
11952.475,0.0101219092
11972.951,0.0101211203
11993.497,0.0101213823
12014.114,0.0101238518
12034.802,0.0101268119
12055.562,0.0101291324
12076.393,0.0101313137
12097.296,0.0101326345
12118.271,0.0101314749
12139.32,0.0101291111
12160.441,0.0101277559
12181.636,0.0101265363
12202.905,0.0101241412
12224.249,0.0101227655
12245.667,0.0101236202
12267.16,0.0101237801
12288.729,0.0101218002
12310.373,0.0101206744
12332.094,0.010121362
12353.892,0.0101206651
12375.767,0.0101178258
12397.719,0.0101155191
12419.75,0.0101135514
12441.859,0.0101099047
12464.046,0.0101067424
12486.313,0.0101073221
12508.659,0.0101095721
12531.086,0.0101098764
12553.593,0.010108735
12576.18,0.0101073701
12598.85,0.0101041987
12621.601,0.0100993886
12644.434,0.0100965386
12667.35,0.0100967835
12690.349,0.0100968308
12713.432,0.0100955666
12736.599,0.0100955885
12759.85,0.0100975166
12783.187,0.0100988441
12806.608,0.0100992008
12830.116,0.0101004704
12853.71,0.010102257
12877.391,0.0101024261
12901.159,0.0101017559
12925.016,0.0101026359
12948.96,0.0101046039
12972.993,0.0101055751
12997.116,0.0101064044
13021.329,0.010109005
13045.631,0.0101122202
13070.025,0.010113797
13094.51,0.0101145625
13119.087,0.0101159311
13143.756,0.010116815
13168.518,0.0101168643
13193.373,0.0101188218
13218.322,0.0101230671
13243.366,0.010125717
13268.505,0.01012522
13293.74,0.0101248442
13319.07,0.0101257934
13344.497,0.01012583
13370.021,0.0101254048
13395.644,0.0101270459
13421.364,0.0101288386
13447.183,0.0101278256
13473.102,0.0101262635
13499.121,0.0101265231
13525.24,0.0101251236
13551.461,0.010120429
13577.783,0.0101168298
13604.208,0.0101158047
13630.736,0.0101131409
13657.367,0.0101093583
13684.103,0.0101088336
13710.943,0.010108764
13737.889,0.010103022
13764.941,0.0100952902
13792.099,0.0100920571
13819.365,0.010090313
13846.739,0.0100860853
13874.221,0.0100844454
13901.813,0.0100873895
13929.515,0.0100878224
13957.327,0.010084122
13985.25,0.0100836694
14013.285,0.0100855059
14041.433,0.0100816577
14069.694,0.010075444
14098.068,0.0100758374
14126.558,0.0100778053
14155.163,0.0100725924
14183.883,0.0100662243
14212.721,0.0100661463
14241.676,0.0100648897
14270.749,0.0100580242
14299.94,0.0100558887
14329.252,0.0100620478
14358.684,0.0100646905
14388.237,0.0100614827
14417.911,0.0100625115
14447.709,0.0100657411
14477.629,0.0100595358
14507.674,0.0100491123
14537.844,0.0100470617
14568.139,0.0100484672
14598.561,0.0100430529
14629.109,0.0100382177
14659.786,0.0100407008
14690.592,0.0100401892
14721.528,0.010030693
14752.594,0.0100245109
14783.791,0.0100247186
14815.121,0.0100182494
14846.583,0.0100012317
14878.179,0.99843333
14909.91,0.99684595
14941.777,0.9950552
14973.78,0.99387625
15005.92,0.99413043
15038.198,0.99437519
15070.616,0.99342539
15103.173,0.99151477
15135.871,0.9894663
15168.712,0.98688277
15201.695,0.9839134
15234.821,0.98012202
15268.092,0.97557351
15301.509,0.9702223
15335.072,0.96514461
15368.783,0.95892363
15402.642,0.95193679
15436.651,0.94427106
15470.81,0.93772246
15505.12,0.92872208
15539.583,0.91858811
15574.199,0.90740543
15608.97,0.89683232
15643.896,0.880453
15678.979,0.86419295
15714.22,0.84922551
15749.619,0.83885496
15785.178,0.82417203
15820.897,0.80843914
15856.779,0.7940309
15892.824,0.78707181
15929.033,0.77931773
15965.407,0.76655402
