Database of Origin,University of Winnipeg Spectrophotometer Facility
Sample Description,Carbonates and Oxolates -  D&P Spectra Reflectance spectra
Other Information,"Designs and Prototypes 102F spectra/Relative to infragold 1"" disk/Reflectance only"
Date Added,2018-08-06 21:06:09.722076

Data ID,FTIR_CARB_39_8      
Sample ID,CRB126
Mineral Name,Shortite
Locality,Stauffer Mine/ Green River/ Wyoming/ USA
Grain Size,unknown
Viewing Geometry,i=35/ e=0
Resolution,~3 cm-1
Formula,Na2Ca2(CO3)3
Composition,Pure shortite (July 06).

Wavelength
2.001142,0.0174519991
2.002307,0.0175694966
2.003474,0.0176812467
2.004643,0.0177899673
2.005812,0.0178903308
2.006983,0.017980403
2.008155,0.0180725926
2.009329,0.018175516
2.010504,0.0182765178
2.01168,0.0183577132
2.012858,0.0184243571
2.014037,0.0184961775
2.015217,0.0185744444
2.016399,0.0186408483
2.017582,0.0186944883
2.018766,0.0187541298
2.019952,0.0188257809
2.021139,0.0189084785
2.022328,0.0189980922
2.023518,0.0190770091
2.024709,0.0191383028
2.025902,0.0191933586
2.027096,0.0192546218
2.028291,0.0193297924
2.029488,0.0194086646
2.030686,0.0194651351
2.031886,0.0195102313
2.033087,0.0195777318
2.034289,0.0196542255
2.035493,0.0197204409
2.036698,0.0197899407
2.037905,0.0198735371
2.039113,0.0199715115
2.040322,0.0200837701
2.041533,0.0202126152
2.042746,0.0203424076
2.043959,0.0204488993
2.045174,0.0205501738
2.046391,0.020660217
2.047609,0.0207646077
2.048828,0.0208709878
2.050049,0.0209836351
2.051271,0.0210834
2.052495,0.0211644202
2.05372,0.0212390908
2.054947,0.021323238
2.056175,0.0214074487
2.057404,0.0214844041
2.058635,0.0215692098
2.059867,0.02165154
2.061101,0.0217284386
2.062336,0.0218188265
2.063573,0.0219126443
2.064811,0.0219944674
2.066051,0.0220727396
2.067292,0.0221532802
2.068534,0.0222420051
2.069778,0.0223360366
2.071024,0.0224196669
2.072271,0.0224995645
2.073519,0.022576508
2.074769,0.0226477438
2.07602,0.0227348614
2.077273,0.0228200262
2.078528,0.02288589
2.079784,0.0229589065
2.081041,0.023040119
2.0823,0.0231125242
2.08356,0.0231694615
2.084822,0.023235181
2.086085,0.0233193542
2.08735,0.0233830371
2.088617,0.0234371786
2.089885,0.0235127547
2.091154,0.0236050433
2.092425,0.0236975319
2.093697,0.0237685562
2.094971,0.0238343213
2.096247,0.0239097364
2.097524,0.0239708383
2.098803,0.024011835
2.100083,0.0240542501
2.101364,0.0240913295
2.102648,0.0241113297
2.103932,0.0241401903
2.105219,0.0241676161
2.106506,0.0241852038
2.107796,0.0242189981
2.109087,0.0242626815
2.110379,0.0243114791
2.111673,0.0243623685
2.112969,0.0244050859
2.114266,0.0244411539
2.115565,0.0244942821
2.116865,0.0245685392
2.118167,0.024623585
2.119471,0.0246811808
2.120776,0.0247869497
2.122082,0.0248931645
2.123391,0.0249796505
2.1247,0.0250832535
2.126012,0.0251977205
2.127325,0.0253325488
2.12864,0.0254881479
2.129956,0.0255817967
2.131274,0.0255836259
2.132593,0.0255783213
2.133914,0.0256057008
2.135237,0.0256701362
2.136561,0.0257626653
2.137887,0.025839247
2.139214,0.0259053741
2.140544,0.0259669213
2.141874,0.02602886
2.143207,0.0261031173
2.144541,0.0261888688
2.145876,0.0262884209
2.147214,0.0263758497
2.148553,0.0264436386
2.149893,0.0265155667
2.151235,0.0266026708
2.152579,0.0266967823
2.153925,0.0267854923
2.155272,0.0268749932
2.156621,0.026979706
2.157972,0.0270902958
2.159324,0.0271889619
2.160678,0.0272757485
2.162033,0.0273547851
2.16339,0.0274418883
2.164749,0.0275410451
2.16611,0.0276331692
2.167472,0.0277315079
2.168836,0.0278353311
2.170202,0.0279135986
2.171569,0.0279875899
2.172938,0.0280774108
2.174309,0.0281510716
2.175682,0.0282065281
2.177056,0.0282650254
2.178432,0.0283180315
2.179809,0.0283721133
2.181189,0.0284288652
2.18257,0.0284704478
2.183952,0.028498403
2.185337,0.0285308156
2.186723,0.0285869743
2.188111,0.028638442
2.189501,0.0286594381
2.190892,0.0286765638
2.192285,0.0287048289
2.19368,0.0287360021
2.195077,0.0287469488
2.196476,0.028739225
2.197876,0.0287506923
2.199278,0.0287732794
2.200682,0.0287722428
2.202087,0.0287805655
2.203494,0.0288230067
2.204903,0.0288641389
2.206314,0.0289119179
2.207727,0.0289596602
2.209141,0.0289932257
2.210557,0.0290429197
2.211975,0.0291022911
2.213395,0.0291721306
2.214817,0.0292693
2.21624,0.0293623369
2.217665,0.0294344055
2.219092,0.0295233799
2.220521,0.0296393218
2.221952,0.0297620436
2.223384,0.0298806483
2.224818,0.0299853901
2.226254,0.0300770912
2.227692,0.0301704355
2.229132,0.0302685606
2.230574,0.0303656586
2.232017,0.0304544584
2.233462,0.0305452623
2.23491,0.0306600199
2.236359,0.0307721811
2.237809,0.0308545026
2.239262,0.0309352897
2.240717,0.0310206113
2.242173,0.031093504
2.243631,0.0311851613
2.245092,0.0312970191
2.246554,0.0313884986
2.248017,0.0314778875
2.249483,0.0315806091
2.250951,0.0316629763
2.252421,0.0317536198
2.253892,0.0318766595
2.255365,0.0319797823
2.256841,0.0320593807
2.258318,0.0321468853
2.259797,0.0322334235
2.261278,0.0323209929
2.262761,0.032423322
2.264246,0.0325258219
2.265732,0.0326139292
2.267221,0.0326884656
2.268712,0.0327637425
2.270204,0.032840945
2.271699,0.0329030952
2.273195,0.0329560843
2.274694,0.033018739
2.276194,0.0330952259
2.277696,0.0331780517
2.279201,0.0332600281
2.280707,0.0333479632
2.282215,0.0334541769
2.283725,0.0335767325
2.285237,0.0337064146
2.286752,0.0338404525
2.288268,0.0339696715
2.289786,0.0340786313
2.291306,0.0341804029
2.292828,0.0342883913
2.294352,0.0344013636
2.295878,0.0345288051
2.297406,0.0346618917
2.298936,0.034798462
2.300468,0.0349176324
2.302002,0.0350184223
2.303539,0.0351118738
2.305077,0.0351804278
2.306617,0.0352631928
2.308159,0.035376821
2.309703,0.0354797969
2.31125,0.0355662887
2.312798,0.0356640033
2.314348,0.0357552339
2.315901,0.035852246
2.317455,0.0359890863
2.319012,0.0361300671
2.320571,0.0362742551
2.322131,0.0364192731
2.323694,0.0365277906
2.325259,0.0366241454
2.326826,0.0367278355
2.328395,0.0368472876
2.329966,0.0369781182
2.33154,0.0370544517
2.333115,0.0370838027
2.334692,0.0371346943
2.336272,0.0371839326
2.337854,0.0371727252
2.339437,0.0371287513
2.341023,0.0371328971
2.342611,0.0372204081
2.344201,0.0373899263
2.345794,0.0376260781
2.347388,0.0378679246
2.348985,0.0380743434
2.350583,0.0382896603
2.352184,0.0385230665
2.353787,0.0386846593
2.355393,0.0387774824
2.357,0.0389028747
2.358609,0.0390627347
2.360221,0.0392290921
2.361835,0.0394086893
2.363451,0.0395933487
2.365069,0.0398028002
2.36669,0.0400087133
2.368312,0.0401610086
2.369937,0.0402991904
2.371564,0.0404406746
2.373194,0.0405890309
2.374825,0.0407557297
2.376459,0.0409013993
2.378095,0.0410113628
2.379733,0.041118765
2.381373,0.0412456882
2.383016,0.0413591279
2.384661,0.0414145494
2.386308,0.0414625
2.387957,0.0415287258
2.389609,0.0415507482
2.391263,0.041565477
2.392919,0.0415952039
2.394577,0.0415921101
2.396238,0.0415617082
2.397901,0.0414959806
2.399566,0.0413812314
2.401233,0.0412381612
2.402903,0.0411656284
2.404575,0.0412509427
2.40625,0.0414536091
2.407926,0.0417043104
2.409606,0.0419535918
2.411287,0.0421643469
2.412971,0.0423341176
2.414657,0.0424731083
2.416345,0.0425882384
2.418036,0.0426978638
2.419729,0.0428022991
2.421424,0.0428609537
2.423122,0.0428785705
2.424822,0.042904398
2.426524,0.0429389407
2.428229,0.0429728295
2.429936,0.0429953804
2.431646,0.0429621001
2.433358,0.0429030978
2.435072,0.0429074762
2.436789,0.042958553
2.438508,0.0429501845
2.440229,0.0428807418
2.441953,0.0428340075
2.443679,0.0427784637
2.445408,0.042705744
2.447139,0.0426739506
2.448873,0.0426333524
2.450609,0.0425621134
2.452347,0.0424987778
2.454088,0.0424782729
2.455831,0.0425041051
2.457577,0.0425170293
2.459325,0.042501739
2.461076,0.0424820959
2.462829,0.0424668127
2.464585,0.0424441188
2.466343,0.0424070566
2.468104,0.0423576072
2.469867,0.0422578129
2.471632,0.0421691884
2.4734,0.04217653
2.475171,0.0421874123
2.476944,0.0421489641
2.47872,0.0420772448
2.480498,0.0419662876
2.482278,0.0418400209
2.484062,0.0417354813
2.485847,0.0416327087
2.487636,0.0415149271
2.489427,0.0414417587
2.49122,0.0413842223
2.493016,0.0412724921
2.494814,0.0411729772
2.496615,0.0411026082
2.498419,0.0410131019
2.500225,0.0408948924
2.502034,0.0406931172
2.503845,0.0404776305
2.505659,0.0404257475
2.507476,0.0404990937
2.509295,0.0405279626
2.511117,0.0405389724
2.512942,0.0405192931
2.514769,0.0404637633
2.516598,0.0405038001
2.518431,0.0406125771
2.520266,0.0407055275
2.522103,0.0407026939
2.523944,0.0407706189
2.525787,0.0410433683
2.527632,0.0413561156
2.52948,0.0414004872
2.531331,0.0413164266
2.533185,0.0414592956
2.535041,0.041582115
2.5369,0.0419305471
2.538762,0.0423972194
2.540627,0.0420468435
2.542494,0.0416037932
2.544364,0.0420581746
2.546236,0.0424145355
2.548112,0.0424676449
2.54999,0.0423846966
2.55187,0.0423607822
2.553754,0.043395896
2.55564,0.0446053292
2.557529,0.0444776704
2.559421,0.0424248604
2.561316,0.0401106509
2.563213,0.0402328963
2.565113,0.0425893277
2.567016,0.0436586183
2.568922,0.0429665438
2.570831,0.0427184646
2.572742,0.0423998014
2.574656,0.0425455742
2.576573,0.0435474466
2.578493,0.0446237156
2.580416,0.0442861214
2.582342,0.0423974238
2.58427,0.041973348
2.586201,0.0428578116
2.588135,0.0437078915
2.590072,0.0451630665
2.592012,0.0427706136
2.593955,0.0368474468
2.5959,0.0381050117
2.597849,0.0442686218
2.5998,0.0457524422
2.601755,0.043757472
2.603712,0.0409241563
2.605672,0.0397105313
2.607635,0.0415926689
2.609601,0.0436844096
2.61157,0.04495923
2.613542,0.0449585586
2.615517,0.0429676555
2.617495,0.0417561933
2.619475,0.0420976349
2.621459,0.0443750626
2.623446,0.0466166595
2.625435,0.045329711
2.627428,0.043649918
2.629424,0.0425721362
2.631423,0.0429565073
2.633424,0.0453190492
2.635429,0.0471322303
2.637437,0.0480777653
2.639447,0.0480186784
2.641461,0.0475842472
2.643478,0.0470885654
2.645498,0.0465802735
2.647521,0.0471958381
2.649547,0.0473931107
2.651576,0.0458836917
2.653609,0.0451019028
2.655644,0.045798331
2.657682,0.0458663396
2.659724,0.0449686377
2.661768,0.0442977053
2.663816,0.0411197102
2.665867,0.0375931101
2.667921,0.0371353322
2.669978,0.0366738761
2.672038,0.0388846247
2.674102,0.0409538336
2.676168,0.0383237278
2.678238,0.0372045218
2.680311,0.0392155169
2.682387,0.0401410042
2.684467,0.0393936863
2.686549,0.0389665159
2.688635,0.0390984292
2.690724,0.0380158416
2.692816,0.0343115578
2.694911,0.031220038
2.69701,0.0308146748
2.699112,0.0295066171
2.701217,0.0265958509
2.703325,0.0243719104
2.705437,0.0225487628
2.707552,0.0198698053
2.70967,0.0167204208
2.711791,0.0155590081
2.713916,0.016244674
2.716044,0.0159851683
2.718175,0.0140744546
2.72031,0.0120922413
2.722448,0.0116577804
2.724589,0.0120999621
2.726734,0.0134251361
2.728882,0.015069624
2.731034,0.0157001731
2.733188,0.0154668401
2.735347,0.0153271038
2.737508,0.0151354589
2.739673,0.0141245459
2.741841,0.0149038881
2.744013,0.01744047
2.746188,0.0188486317
2.748367,0.0191775678
2.750549,0.0191864248
2.752734,0.0182562959
2.754923,0.0163593261
2.757115,0.0165664085
2.759311,0.0182706854
2.76151,0.017864345
2.763713,0.0171333624
2.765919,0.0176401983
2.768129,0.0177580688
2.770342,0.0174458118
2.772559,0.0178808031
2.774779,0.0186042497
2.777003,0.0185859914
2.77923,0.0181596433
2.781461,0.0177817739
2.783696,0.0174962501
2.785934,0.0166917403
2.788175,0.0161370338
2.79042,0.0167611262
2.792669,0.0171559685
2.794922,0.0170047248
2.797178,0.0170283893
2.799437,0.0169509336
2.8017,0.016056704
2.803967,0.0152885904
2.806238,0.0157315718
2.808512,0.0162607637
2.810789,0.016312004
2.813071,0.0161255928
2.815356,0.0158994382
2.817645,0.0156923313
2.819937,0.0153239801
2.822233,0.0152620009
2.824533,0.0153961471
2.826837,0.0152040526
2.829144,0.0150082728
2.831455,0.0148737353
2.83377,0.0145593246
2.836089,0.0142800849
2.838411,0.0142085392
2.840737,0.0142221037
2.843067,0.0141648452
2.845401,0.0141344465
2.847739,0.0141625938
2.85008,0.014197458
2.852425,0.0142052617
2.854774,0.0141378581
2.857127,0.0141979098
2.859484,0.0142677685
2.861844,0.0142461831
2.864209,0.0142704144
2.866577,0.0142581539
2.868949,0.0142168067
2.871325,0.0141459696
2.873705,0.0141125382
2.876089,0.0141567379
2.878477,0.0141158951
2.880869,0.0140448027
2.883265,0.0140527995
2.885664,0.014066912
2.888068,0.0140131909
2.890476,0.0140351653
2.892887,0.0142366572
2.895303,0.0144369185
2.897723,0.0145483529
2.900146,0.0146007092
2.902574,0.0146939069
2.905006,0.0148844607
2.907441,0.0150865657
2.909881,0.0152966706
2.912325,0.0155048222
2.914773,0.0156410355
2.917225,0.0157627709
2.919681,0.0159678222
2.922142,0.0161596304
2.924606,0.016379183
2.927075,0.0166828428
2.929547,0.0169090374
2.932024,0.0170816028
2.934505,0.0172463377
2.93699,0.0173616807
2.939479,0.017469644
2.941973,0.0176161892
2.944471,0.0177100608
2.946973,0.0177084983
2.949479,0.0178890373
2.951989,0.0181599458
2.954504,0.0182167998
2.957023,0.0183407851
2.959546,0.0186059833
2.962073,0.0187785366
2.964605,0.018900369
2.967141,0.019016424
2.969681,0.0191197662
2.972226,0.0191646683
2.974775,0.01914225
2.977328,0.0192729886
2.979886,0.0195328296
2.982448,0.019724294
2.985015,0.0199022253
2.987586,0.0200653471
2.990161,0.0201160801
2.99274,0.0201839788
2.995324,0.0203657335
2.997913,0.0205124233
3.000506,0.0205973776
3.003103,0.020709501
3.005705,0.0208857734
3.008312,0.0210675183
3.010922,0.0211742343
3.013538,0.021220795
3.016158,0.0213063584
3.018782,0.0214395614
3.021411,0.0215313941
3.024044,0.0216035223
3.026683,0.0216413329
3.029325,0.0215462523
3.031972,0.0214267999
3.034624,0.0215563295
3.037281,0.0218195877
3.039942,0.0219115935
3.042607,0.0218811392
3.045278,0.0218840736
3.047953,0.0219812523
3.050632,0.02207384
3.053317,0.0220847697
3.056006,0.0220988468
3.0587,0.0221322552
3.061398,0.0221121358
3.064101,0.0220468157
3.066809,0.0221067001
3.069522,0.0222763501
3.072239,0.0223754743
3.074962,0.0224354851
3.077689,0.0224754521
3.080421,0.0224722011
3.083157,0.0224831234
3.085899,0.0224795607
3.088645,0.0224923664
3.091396,0.0225879538
3.094153,0.0226861136
3.096914,0.0226992521
3.099679,0.0226520597
3.10245,0.022731915
3.105226,0.0229140658
3.108007,0.0230243622
3.110792,0.0230813698
3.113583,0.0231072905
3.116378,0.0231340701
3.119179,0.0231708962
3.121985,0.0232067776
3.124795,0.0232566858
3.127611,0.0233281065
3.130431,0.0234542202
3.133257,0.0236065527
3.136088,0.0237281788
3.138924,0.0238331815
3.141765,0.0239618095
3.144611,0.0241059641
3.147462,0.0242489752
3.150319,0.0244186011
3.15318,0.0246192403
3.156047,0.0248319479
3.158919,0.0250326792
3.161796,0.0251789953
3.164678,0.0252598705
3.167566,0.0253214025
3.170458,0.0253760299
3.173356,0.025431729
3.17626,0.0254620887
3.179168,0.0253791528
3.182082,0.0254386925
3.185001,0.0257654887
3.187926,0.0260048846
3.190856,0.0260179605
3.193791,0.0259801297
3.196731,0.0260794684
3.199677,0.0261997471
3.202629,0.0261790964
3.205585,0.026147016
3.208548,0.0261244635
3.211515,0.025927577
3.214488,0.0255787463
3.217467,0.0253775676
3.220451,0.0254174037
3.223441,0.0253001907
3.226436,0.0249707977
3.229437,0.0247350828
3.232443,0.0244354109
3.235455,0.0240323809
3.238472,0.023653959
3.241495,0.023216827
3.244523,0.0227624639
3.247558,0.0223977616
3.250598,0.0220867208
3.253643,0.0218129469
3.256694,0.0216194797
3.259751,0.0215973399
3.262814,0.0216722078
3.265882,0.0216203708
3.268956,0.0214671036
3.272036,0.0213733078
3.275122,0.0213322811
3.278213,0.0212274394
3.28131,0.0211177153
3.284413,0.0210979417
3.287522,0.0211423346
3.290637,0.021185453
3.293757,0.0210502131
3.296884,0.0208016638
3.300016,0.0206171833
3.303155,0.0202796128
3.306299,0.019757323
3.309449,0.0192874835
3.312605,0.0188394972
3.315767,0.0184256448
3.318936,0.0182084107
3.32211,0.0180853745
3.32529,0.0176807808
3.328476,0.0167116879
3.331669,0.0150924073
3.334867,0.0127974069
3.338072,0.0103412322
3.341282,0.85213431
3.344499,0.75972107
3.347722,0.74492388
3.350952,0.7837678
3.354187,0.85149727
3.357429,0.92489849
3.360677,0.97766389
3.363931,0.99846021
3.367191,0.99900469
3.370458,0.0100011231
3.373731,0.0101652599
3.37701,0.0104481544
3.380296,0.0107990534
3.383588,0.0112155357
3.386886,0.0114333351
3.390191,0.011110217
3.393502,0.0102076926
3.39682,0.90424838
3.400144,0.80096332
3.403475,0.73540342
3.406812,0.71767206
3.410156,0.740004
3.413506,0.77932996
3.416862,0.81383337
3.420226,0.82966334
3.423596,0.81941432
3.426972,0.79468448
3.430355,0.77774372
3.433745,0.78105881
3.437141,0.79703079
3.440545,0.81647335
3.443954,0.84820328
3.447371,0.89508888
3.450794,0.94348193
3.454224,0.98579616
3.457661,0.0102266605
3.461105,0.0104842693
3.464556,0.0106075752
3.468013,0.0106706865
3.471477,0.0108195317
3.474948,0.0113311451
3.478426,0.0123586391
3.481911,0.0136166467
3.485403,0.0146097047
3.488902,0.0151239244
3.492408,0.0155631923
3.495921,0.0161873644
3.499441,0.0166005021
3.502968,0.0165377414
3.506502,0.0160354917
3.510043,0.015571949
3.513592,0.0158645448
3.517147,0.0168071147
3.52071,0.017702324
3.52428,0.0182821719
3.527857,0.0186710194
3.531441,0.018863396
3.535032,0.0190983877
3.538631,0.0198832595
3.542237,0.0215770221
3.545851,0.024385003
3.549471,0.0277792766
3.553099,0.0307412949
3.556735,0.032817629
3.560378,0.0341195986
3.564028,0.0349182146
3.567686,0.0353676598
3.571351,0.0355846332
3.575024,0.0356147508
3.578704,0.035361049
3.582392,0.0348416834
3.586088,0.0343408727
3.589791,0.0341302663
3.593501,0.034042352
3.59722,0.0340636604
3.600946,0.0345112491
3.604679,0.035285043
3.608421,0.0362468562
3.61217,0.0373638009
3.615926,0.0385658372
3.619691,0.0398500645
3.623463,0.0409315347
3.627244,0.0416531804
3.631032,0.0421369864
3.634828,0.0424792135
3.638632,0.042740587
3.642444,0.042923994
3.646263,0.0430313261
3.650091,0.0430563775
3.653927,0.0431399284
3.657771,0.0433166415
3.661623,0.0433845268
3.665483,0.0433536178
3.669351,0.0433559759
3.673227,0.0433523405
3.677111,0.0432089362
3.681004,0.0429857323
3.684905,0.0428956945
3.688814,0.0429253012
3.692731,0.042912687
3.696656,0.0428299552
3.70059,0.0427171538
3.704532,0.0425999659
3.708483,0.0424960765
3.712442,0.0423530933
3.716409,0.0421375939
3.720385,0.0418783047
3.72437,0.0415820366
3.728362,0.0412468563
3.732364,0.0408799381
3.736374,0.04046152
3.740392,0.0398879975
3.744419,0.039125607
3.748455,0.0382592995
3.752499,0.0372472974
3.756553,0.0359943318
3.760614,0.0344634087
3.764685,0.0326656748
3.768764,0.0306784647
3.772853,0.0286912323
3.77695,0.0269028647
3.781056,0.0252947743
3.78517,0.0237158172
3.789294,0.0220231881
3.793427,0.0201531025
3.797568,0.0181589518
3.801719,0.0161292411
3.805879,0.0140836554
3.810048,0.0120820379
3.814225,0.0104205322
3.818412,0.933478
3.822609,0.86984508
3.826814,0.8391793
3.831029,0.84846612
3.835252,0.89213064
3.839486,0.94454855
3.843728,0.98828761
3.84798,0.0102726835
3.852241,0.0107210545
3.856512,0.0112493932
3.860792,0.0116348197
3.865081,0.011636824
3.86938,0.0112805497
3.873689,0.0107137551
3.878007,0.0100284325
3.882334,0.91803701
3.886672,0.83259962
3.891019,0.77733334
3.895375,0.73974842
3.899742,0.688662
3.904118,0.62398702
3.908504,0.56756967
3.9129,0.5227691
3.917305,0.46733062
3.921721,0.41030191
3.926146,0.38596077
3.930581,0.4021558
3.935027,0.44128216
3.939482,0.47478521
3.943948,0.50734696
3.948423,0.56100472
3.952909,0.61025169
3.957405,0.61352959
3.961911,0.56229316
3.966427,0.49485151
3.970954,0.45217797
3.975491,0.42224958
3.980038,0.37562732
3.984595,0.30595584
3.989163,0.27995369
3.993742,0.41943944
3.99833,0.76774323
4.00293,0.0113090144
4.00754,0.0138610825
4.01216,0.0156656941
4.016791,0.0171744464
4.021433,0.0182424465
4.026086,0.0185065143
4.030749,0.0179088699
4.035423,0.0168235548
4.040108,0.0157084128
4.044804,0.0146841991
4.04951,0.0136369375
4.054228,0.0125260343
4.058956,0.0114150537
4.063695,0.0102108581
4.068446,0.89304264
4.073207,0.8491513
4.07798,0.0103208868
4.082764,0.0144423265
4.087559,0.0191763352
4.092365,0.0232861394
4.097183,0.0266401541
4.102012,0.0292655289
4.106852,0.0310668476
4.111703,0.0322082133
4.116566,0.0330905129
4.121441,0.0338803713
4.126327,0.0346132885
4.131224,0.0354446917
4.136133,0.0363461385
4.141054,0.0371174125
4.145987,0.0376811481
4.150931,0.0380837172
4.155887,0.0384019026
4.160854,0.0386599491
4.165834,0.0388852272
4.170826,0.0391238189
4.175829,0.0393604544
4.180844,0.039583059
4.185872,0.0396937269
4.190911,0.0393990313
4.195963,0.038231609
4.201026,0.0357987837
4.206102,0.0321485009
4.21119,0.0278203827
4.216291,0.0235844263
4.221404,0.0199839714
4.226529,0.017237902
4.231666,0.0154769519
4.236816,0.0148175073
4.241979,0.0154731702
4.247154,0.0178451828
4.252341,0.0227468281
4.257542,0.0272012336
4.262754,0.0260861203
4.26798,0.0223777659
4.273219,0.0209163896
4.27847,0.021011622
4.283734,0.0214962753
4.289011,0.022014428
4.294301,0.0228646558
4.299604,0.0241924195
4.30492,0.0255600381
4.31025,0.0272718047
4.315592,0.029483264
4.320948,0.0315648134
4.326317,0.0333169318
4.331699,0.0350566794
4.337095,0.0367566886
4.342504,0.0381633702
4.347926,0.0392066307
4.353362,0.0399613625
4.358811,0.0405528453
4.364275,0.0410533828
4.369751,0.0414558395
4.375242,0.0417433864
4.380746,0.0418030585
4.386264,0.0416052111
4.391796,0.0412642623
4.397342,0.0408529346
4.402902,0.0404729557
4.408476,0.0401983271
4.414064,0.0400525108
4.419666,0.0400385331
4.425282,0.0401285328
4.430913,0.040297652
4.436558,0.0404630938
4.442217,0.0405581572
4.447891,0.0405704175
4.453579,0.0404709223
4.459281,0.0403537475
4.464998,0.0403082905
4.47073,0.0402389569
4.476477,0.0402442275
4.482238,0.0404431721
4.488014,0.0407009074
4.493805,0.0410128257
4.499611,0.0414658547
4.505431,0.0420264569
4.511267,0.0424765071
4.517118,0.0427160978
4.522984,0.0428854765
4.528865,0.0429546595
4.534762,0.0429177237
4.540674,0.0428743346
4.546601,0.0429494081
4.552543,0.0431581993
4.558502,0.0433330152
4.564475,0.0434245204
4.570465,0.043418541
4.57647,0.043182132
4.582491,0.0426918032
4.588527,0.0421617171
4.59458,0.0418840615
4.600648,0.0418812883
4.606732,0.0420229285
4.612833,0.0420677057
4.618949,0.0416736392
4.625082,0.0417102124
4.631231,0.0428918041
4.637397,0.0439949749
4.643578,0.0442750125
4.649777,0.0442671282
4.655991,0.0440891345
4.662223,0.0429512412
4.668471,0.039270238
4.674735,0.0348009272
4.681017,0.0350238693
4.687315,0.0388983252
4.69363,0.041291452
4.699962,0.0421401003
4.706312,0.0426176253
4.712678,0.0427496288
4.719062,0.042972433
4.725463,0.0438024467
4.731881,0.045269334
4.738316,0.0469266852
4.744769,0.0482625327
4.75124,0.0491840579
4.757728,0.0496920083
4.764234,0.0497798285
4.770758,0.0496629586
4.777299,0.049404058
4.783859,0.049179922
4.790436,0.0493786168
4.797032,0.0500522398
4.803645,0.0509845646
4.810277,0.0521420909
4.816927,0.0534770969
4.823596,0.0546229742
4.830283,0.0553772898
4.836988,0.0558708484
4.843712,0.0563371528
4.850455,0.056858006
4.857216,0.0572931505
4.863996,0.0576161742
4.870795,0.0579609694
4.877613,0.0583937993
4.884451,0.0586775113
4.891307,0.0589780614
4.898182,0.0593302112
4.905077,0.0595508446
4.911991,0.0599806791
4.918925,0.0605164064
4.925878,0.0608752942
4.932851,0.0610825603
4.939844,0.0613641179
4.946856,0.061820754
4.953888,0.062237797
4.960941,0.062480913
4.968013,0.0625678162
4.975105,0.0629576716
4.982218,0.0635311401
4.989351,0.0636561522
4.996504,0.0638070181
5.003678,0.0639909385
5.010872,0.0640449575
5.018087,0.0641299162
5.025323,0.0645021752
5.03258,0.0650659702
5.039857,0.065500571
5.047156,0.0658033245
5.054475,0.0660597391
5.061816,0.0663458736
5.069179,0.0666335578
5.076562,0.0667356744
5.083967,0.0668465475
5.091394,0.0671338
5.098842,0.0672488004
5.106312,0.0672057763
5.113804,0.0672741044
5.121318,0.0675098082
5.128854,0.0678294875
5.136412,0.0678374417
5.143992,0.067521593
5.151595,0.0677286153
5.15922,0.0684058679
5.166868,0.0689274196
5.174538,0.069402151
5.182231,0.0698335277
5.189947,0.0698419463
5.197686,0.0695250734
5.205448,0.0691449058
5.213233,0.0690157158
5.221041,0.0696392686
5.228873,0.0700303554
5.236728,0.0698592182
5.244607,0.0699347689
5.25251,0.0700248272
5.260436,0.0699263608
5.268386,0.0697089159
5.27636,0.0695029431
5.284358,0.0691307669
5.292381,0.0687869801
5.300428,0.0689596256
5.308499,0.0690319049
5.316595,0.0687287506
5.324715,0.0683538869
5.33286,0.0678717671
5.341031,0.0665049647
5.349226,0.0648210572
5.357446,0.0645451296
5.365692,0.0643939827
5.373962,0.0630310594
5.382259,0.0611009949
5.390581,0.0587036721
5.398928,0.0555926165
5.407302,0.0514104719
5.415701,0.0458119168
5.424127,0.0404619772
5.432579,0.0359720923
5.441057,0.0308926817
5.449561,0.0256944869
5.458092,0.0211346162
5.46665,0.0175943002
5.475234,0.0152832545
5.483846,0.0137284703
5.492484,0.0121458523
5.50115,0.0126330228
5.509843,0.026345852
5.518564,0.021868377
5.527312,0.0173147972
5.536087,0.0150004102
5.544891,0.014491953
5.553723,0.0140217961
5.562582,0.0132198097
5.57147,0.0134968483
5.580387,0.0133957056
5.589332,0.0122770445
5.598305,0.0119176464
5.607307,0.0119066162
5.616339,0.0116460699
5.625399,0.0116568607
5.634489,0.0125688529
5.643607,0.0131313515
5.652756,0.0122232996
5.661934,0.0115383366
5.671142,0.011649589
5.680379,0.0118067035
5.689647,0.0117142437
5.698945,0.0119742447
5.708274,0.0126179955
5.717633,0.0125028985
5.727022,0.0119586022
5.736443,0.0120611404
5.745894,0.0122955743
5.755377,0.0130119863
5.76489,0.0139482575
5.774436,0.0128336587
5.784012,0.0116464449
5.793621,0.011421498
5.803262,0.011650925
5.812934,0.0128867003
5.822639,0.0138421284
5.832376,0.0126612114
5.842146,0.0117731946
5.851948,0.0119807942
5.861783,0.0125887865
5.871652,0.013904692
5.881553,0.0152057992
5.891488,0.0145578421
5.901457,0.0129596421
5.911459,0.0120372494
5.921495,0.0126892998
5.931565,0.0143563669
5.94167,0.0137193454
5.951809,0.0124604873
5.961982,0.0127232763
5.97219,0.0130934384
5.982433,0.0131791869
5.992711,0.0128898159
6.003025,0.0125462664
6.013374,0.0125965363
6.023759,0.0123957993
6.034179,0.0137751589
6.044636,0.0165906226
6.055129,0.0155833102
6.065658,0.0144461126
6.076224,0.0140196522
6.086826,0.01305522
6.097466,0.013568959
6.108143,0.0149184094
6.118857,0.0142621678
6.129609,0.0132818561
6.140398,0.0134269401
6.151226,0.0137087618
6.162091,0.0135235568
6.172996,0.013748667
6.183938,0.013836531
6.19492,0.0128181507
6.20594,0.0122147586
6.217,0.0120532134
6.228099,0.0118337252
6.239237,0.0116682544
6.250416,0.0115355037
6.261635,0.0114625678
6.272893,0.0113923247
6.284193,0.0113122104
6.295533,0.0112774232
6.306914,0.0112710722
6.318336,0.0113242982
6.329799,0.0119127493
6.341304,0.0123733147
6.352851,0.0119996419
6.36444,0.0119048185
6.376071,0.0117517109
6.387745,0.0116362789
6.399461,0.012889602
6.411221,0.0141137516
6.423023,0.0128288855
6.434869,0.0116775939
6.446759,0.011327948
6.458693,0.0113744639
6.470671,0.0121133211
6.482693,0.0131569725
6.49476,0.0126002924
6.506872,0.0115552345
6.519029,0.01123052
6.531231,0.0110719518
6.54348,0.0112271897
6.555774,0.011756333
6.568114,0.0121246042
6.580501,0.0118747881
6.592934,0.0114515384
6.605415,0.0113072598
6.617943,0.0118995525
6.630518,0.0125855
6.643141,0.0117379152
6.655812,0.0111008344
6.668532,0.0113369327
6.6813,0.0112796625
6.694117,0.0111250496
6.706983,0.0112499002
6.719899,0.0110556759
6.732864,0.0107644229
6.745879,0.0107293173
6.758945,0.0108983947
6.772062,0.0113342156
6.785229,0.0114495841
6.798448,0.0109779235
6.811718,0.0108360225
6.825039,0.0108377592
6.838413,0.0109778891
6.85184,0.0115972003
6.865319,0.011372135
6.878851,0.010682187
6.892437,0.0105721352
6.906076,0.0105400287
6.919769,0.0103660214
6.933517,0.0104175888
6.947319,0.0107363477
6.961176,0.0106796362
6.975089,0.0103721794
6.989057,0.0102817555
7.003081,0.0102328381
7.017161,0.0103225464
7.031298,0.0106728792
7.045492,0.010741919
7.059743,0.0104400689
7.074052,0.0102969934
7.088419,0.0102966665
7.102845,0.0103120623
7.117329,0.0103056976
7.131872,0.0103289213
7.146475,0.0104144251
7.161137,0.0103637825
7.17586,0.0101874745
7.190643,0.0101649204
7.205487,0.010172813
7.220393,0.0100563652
7.23536,0.99972749
7.25039,0.0100303233
7.265481,0.0100690728
7.280636,0.0100231965
7.295854,0.99485216
7.311135,0.9956251
7.326481,0.0100127555
7.341891,0.99756845
7.357366,0.98971801
7.372906,0.98804527
7.388512,0.98788013
7.404184,0.98784188
7.419922,0.98798422
7.435728,0.99167661
7.451601,0.99859665
7.467541,0.99802705
7.48355,0.99180559
7.499628,0.98911204
7.515774,0.98868784
7.53199,0.98800948
7.548277,0.98849611
7.564633,0.99057188
7.581061,0.99134565
7.59756,0.99005368
7.614131,0.98817288
7.630774,0.98667731
7.647491,0.98626836
7.66428,0.98669822
7.681143,0.98760595
7.69808,0.98827336
7.715093,0.98840624
7.73218,0.98896836
7.749343,0.99035536
7.766583,0.99178931
7.783899,0.99345752
7.801292,0.99555186
7.818764,0.99777063
7.836313,0.0100103519
7.853942,0.0100562881
7.871649,0.0101096578
7.889437,0.0101703294
7.907305,0.0102279207
7.925254,0.0102575083
7.943285,0.0102555306
7.961398,0.0102441658
7.979594,0.0102378035
7.997872,0.0102428955
8.016235,0.0102614692
8.034682,0.0102870886
8.053214,0.0103131817
8.071832,0.0103418321
8.090535,0.0103755681
8.109326,0.0104131552
8.128204,0.01045048
8.147169,0.0104802806
8.166224,0.0105084
8.185368,0.0105415654
8.204601,0.0105732287
8.223925,0.0105996643
8.24334,0.010623102
8.262847,0.0106472342
8.282446,0.0106745813
8.302139,0.0107019846
8.321925,0.0107278348
8.341805,0.0107540573
8.361781,0.01078004
8.381852,0.0108077851
8.40202,0.0108403075
8.422285,0.0108765514
8.442648,0.0109142477
8.463109,0.0109469371
8.48367,0.0109734993
8.504331,0.0110004922
8.525092,0.0110294709
8.545955,0.0110614975
8.566921,0.0110944737
8.587989,0.0111238688
8.609161,0.0111506283
8.630437,0.0111800998
8.651819,0.0112158971
8.673307,0.0112525846
8.694902,0.0112851114
8.716604,0.0113178272
8.738415,0.0113532444
8.760335,0.0113906088
8.782365,0.0114334695
8.804507,0.0114791838
8.82676,0.0115229893
8.849125,0.0115711082
8.871604,0.011626939
8.894198,0.0116851487
8.916907,0.0117464288
8.939732,0.0118087402
8.962673,0.0118607135
8.985733,0.0119041997
9.008912,0.0119485808
9.03221,0.0119906193
9.055629,0.0120233744
9.07917,0.0120481871
9.102833,0.0120552312
9.12662,0.0120170922
9.150531,0.0119701312
9.174568,0.0119898588
9.198731,0.0120436967
9.223022,0.0120655724
9.247441,0.0120613349
9.27199,0.0120327173
9.296669,0.0119691333
9.32148,0.0119214352
9.346423,0.0119273366
9.3715,0.0119413432
9.396712,0.011935394
9.42206,0.0119208617
9.447545,0.0118986243
9.473167,0.0118636023
9.498929,0.0118226457
9.524832,0.0117858069
9.550876,0.0117541971
9.577062,0.0117257092
9.603393,0.011696104
9.629868,0.0116631242
9.65649,0.0116305476
9.683259,0.0116001517
9.710176,0.0115708901
9.737244,0.0115426353
9.764463,0.0115130948
9.791834,0.0114811189
9.819359,0.0114458195
9.847039,0.0114072242
9.874875,0.0113665299
9.902869,0.0113231527
9.931022,0.011284871
9.959336,0.0112579417
9.987811,0.0112376207
10.016449,0.011220917
10.045252,0.0112079112
10.074221,0.0111989019
10.103357,0.0111942606
10.132662,0.0111937925
10.162137,0.0111979595
10.191784,0.0112036955
10.221604,0.0112081148
10.2516,0.0112145776
10.281771,0.0112241406
10.312121,0.0112365803
10.34265,0.0112527455
10.37336,0.0112702057
10.404253,0.0112864564
10.435331,0.011304756
10.466594,0.0113292426
10.498045,0.0113581305
10.529686,0.0113904488
10.561517,0.011425357
10.593542,0.0114617682
10.625761,0.011503699
10.658176,0.0115509666
10.69079,0.0115997801
10.723604,0.0116501327
10.756619,0.0117032225
10.789839,0.0117591168
10.823264,0.0118177926
10.856896,0.0118806636
10.890738,0.0119467591
10.924791,0.0120139186
10.959058,0.0120837686
10.993541,0.0121574096
11.02824,0.0122323466
11.06316,0.0123057688
11.098301,0.0123796918
11.133665,0.0124585745
11.169256,0.0125365945
11.205075,0.0126079405
11.241124,0.0126750081
11.277405,0.0127399822
11.313921,0.0128040561
11.350675,0.012865146
11.387667,0.0129287595
11.424901,0.0129997701
11.46238,0.0130698335
11.500105,0.0131277841
11.538079,0.0131736333
11.576304,0.0132227222
11.614783,0.0132799691
11.653518,0.0133397623
11.692513,0.0134064182
11.731769,0.0134845713
11.77129,0.013573952
11.811077,0.0136572885
11.851134,0.0137248691
11.891464,0.0137964974
11.932068,0.0138757725
11.972951,0.0139613776
12.014114,0.0140587228
12.055562,0.0141632197
12.097296,0.0142788881
12.13932,0.0143958451
12.181636,0.0144925371
12.224249,0.0145837149
12.26716,0.0146880991
12.310373,0.0147985809
12.353892,0.0149042476
12.397719,0.0149925435
12.441859,0.0150527951
12.486313,0.0150868329
12.531086,0.0151015696
12.57618,0.0151148832
12.621601,0.0151331824
12.66735,0.015143565
12.713432,0.015154884
12.75985,0.0151781438
12.806608,0.0152107684
12.85371,0.0152564399
12.901159,0.0153239209
12.94896,0.0154125692
12.997116,0.015512985
13.045631,0.0156283568
13.09451,0.0157579512
13.143756,0.0158931
13.193373,0.0160396182
13.243366,0.0161949096
13.29374,0.0163523891
13.344497,0.016525637
13.395644,0.0167172423
13.447183,0.0169128803
13.499121,0.0171210064
13.551461,0.0173558751
13.604208,0.0176164111
13.657367,0.0179042451
13.710943,0.0182189009
13.764941,0.0185665811
13.819365,0.0189902105
13.874221,0.019461239
13.929515,0.0199441007
13.98525,0.0205362903
14.041433,0.0212735765
14.098068,0.0221710984
14.155163,0.023299622
14.212721,0.024709561
14.270749,0.0265125112
14.329252,0.0288820738
14.388237,0.0320691483
14.447709,0.0365664468
14.507674,0.043301584
14.568139,0.0539888275
14.629109,0.0715047434
14.690592,0.0904020028
14.752594,0.0789382655
14.815121,0.0550550959
14.878179,0.0346438797
14.941777,0.0226972486
15.00592,0.0185283169
15.070616,0.0155516347
15.135871,0.0121982918
15.201695,0.9774819
15.268092,0.79989727
15.335072,0.67051589
15.402642,0.5804863
15.47081,0.51450176
15.539583,0.46264973
15.60897,0.42260265
15.678979,0.39258402
15.749619,0.36995538
15.820897,0.35267077
15.892824,0.3387609
15.965407,0.32700057
