Database of Origin,University of Winnipeg Spectrophotometer Facility
Sample Description,Basalts and Igneous Samples -  D and P 102F FTIR spectra (PSF)
Date Added,2018-07-23 23:07:15.254371

Data ID,FTIR_BAS_11_2       
Sample ID,SA-51B
Mineral Name,Basalt
Locality,Wallowa County Oregon
Grain Size,45-90 um
Viewing Geometry,35/0

Wavelength
2001.142,0.41643152
2002.307,0.41654954
2003.474,0.41672187
2004.643,0.41683779
2005.812,0.41682056
2006.983,0.41664167
2008.155,0.41631185
2009.329,0.41588364
2010.504,0.41544501
2011.68,0.4150857
2012.858,0.41484596
2014.037,0.41469716
2015.217,0.41457871
2016.399,0.41445892
2017.582,0.41435706
2018.766,0.41430824
2019.952,0.41430357
2021.139,0.41428041
2022.328,0.41416532
2023.518,0.4139448
2024.709,0.41368258
2025.902,0.41347924
2027.096,0.41341099
2028.291,0.41348487
2029.488,0.41363276
2030.686,0.41374864
2031.886,0.41376134
2033.087,0.41368482
2034.289,0.41359327
2035.493,0.4135316
2036.698,0.41345655
2037.905,0.41328239
2039.113,0.41299287
2040.322,0.41268919
2041.533,0.41250716
2042.746,0.41249531
2043.959,0.41258044
2045.174,0.41264585
2046.391,0.41262604
2047.609,0.41252492
2048.828,0.4123654
2050.049,0.41214462
2051.271,0.41184968
2052.495,0.41151967
2053.72,0.41127488
2054.947,0.41124529
2056.175,0.41145009
2057.404,0.41174615
2058.635,0.4119123
2059.867,0.41181447
2061.101,0.41150579
2062.336,0.4111774
2063.573,0.41100411
2064.811,0.41102217
2066.051,0.41112573
2067.292,0.41117532
2068.534,0.41112752
2069.778,0.4110732
2071.024,0.41114368
2072.271,0.4113791
2073.519,0.41168052
2074.769,0.41187522
2076.02,0.41184511
2077.273,0.41159609
2078.528,0.4112245
2079.784,0.41084265
2081.041,0.410538
2082.3,0.41036787
2083.56,0.41035206
2084.822,0.41045299
2086.085,0.41058119
2087.35,0.41064069
2088.617,0.41059547
2089.885,0.41049705
2091.154,0.41043564
2092.425,0.41044851
2093.697,0.41046958
2094.971,0.4103785
2096.247,0.41011071
2097.524,0.40972564
2098.803,0.40936652
2100.083,0.40916414
2101.364,0.40916366
2102.648,0.40931444
2103.932,0.40950387
2105.219,0.40961308
2106.506,0.40958473
2107.796,0.40946074
2109.087,0.40934467
2110.379,0.40930105
2111.673,0.40929074
2112.969,0.40922214
2114.266,0.40906723
2115.565,0.40890042
2116.865,0.40882674
2118.167,0.40888151
2119.471,0.40900619
2120.776,0.40910661
2122.082,0.40912006
2123.391,0.40904071
2124.7,0.40891093
2126.012,0.40879488
2127.325,0.40872424
2128.64,0.40865058
2129.956,0.40846911
2131.274,0.40811707
2132.593,0.40765418
2133.914,0.40724066
2135.237,0.40702669
2136.561,0.40705494
2137.887,0.40725391
2139.214,0.40749588
2140.544,0.40764503
2141.874,0.40758922
2143.207,0.40730157
2144.541,0.40688582
2145.876,0.40654334
2147.214,0.40644896
2148.553,0.40663768
2149.893,0.40699281
2151.235,0.40733192
2152.579,0.40751055
2153.925,0.40747996
2155.272,0.40728378
2156.621,0.40702218
2157.972,0.40679846
2159.324,0.40666216
2160.678,0.40659281
2162.033,0.40652887
2163.39,0.40641667
2164.749,0.40624845
2166.11,0.40607374
2167.472,0.4059604
2168.836,0.4059276
2170.202,0.40592034
2171.569,0.40586173
2172.938,0.40573118
2174.309,0.4055757
2175.682,0.40545329
2177.056,0.4053772
2178.432,0.40532877
2179.809,0.40530693
2181.189,0.40533287
2182.57,0.40539681
2183.952,0.40543844
2185.337,0.40539844
2186.723,0.40528817
2188.111,0.405185
2189.501,0.40515591
2190.892,0.40519705
2192.285,0.40524521
2193.68,0.40522831
2195.077,0.40512014
2196.476,0.40497745
2197.876,0.40491162
2199.278,0.40499226
2200.682,0.40516663
2202.087,0.4052951
2203.494,0.40529039
2204.903,0.40520635
2206.314,0.40517596
2207.727,0.40528512
2209.141,0.405527
2210.557,0.40585649
2211.975,0.40624647
2213.395,0.40667313
2214.817,0.40707793
2216.24,0.40737846
2217.665,0.4075214
2219.092,0.40752251
2220.521,0.40746717
2221.952,0.40746736
2223.384,0.40760389
2224.818,0.40788688
2226.254,0.40824779
2227.692,0.40858085
2229.132,0.40881474
2230.574,0.40895515
2232.017,0.40905661
2233.462,0.40915707
2234.91,0.40923757
2236.359,0.40924672
2237.809,0.40916776
2239.262,0.40905414
2240.717,0.40899194
2242.173,0.40902394
2243.631,0.4091147
2245.092,0.40918821
2246.554,0.40920066
2248.017,0.40916837
2249.483,0.40912125
2250.951,0.40903699
2252.421,0.40884503
2253.892,0.40850549
2255.365,0.4080687
2256.841,0.40763247
2258.318,0.4072472
2259.797,0.4068895
2261.278,0.40652881
2262.761,0.40619831
2264.246,0.40597351
2265.732,0.40586966
2267.221,0.40578047
2268.712,0.40554212
2270.204,0.40506506
2271.699,0.40442426
2273.195,0.40382688
2274.694,0.40349368
2276.194,0.40354007
2277.696,0.40390585
2279.201,0.40436249
2280.707,0.40461855
2282.215,0.40449885
2283.725,0.40408279
2285.237,0.40365852
2286.752,0.40349118
2288.268,0.40360533
2289.786,0.40378833
2291.306,0.40380132
2292.828,0.4035828
2294.352,0.40326268
2295.878,0.4030088
2297.406,0.40288576
2298.936,0.40285066
2300.468,0.40283465
2302.002,0.40281508
2303.539,0.40281159
2305.077,0.40284122
2306.617,0.40288253
2308.159,0.40289612
2309.703,0.40287285
2311.25,0.40284463
2312.798,0.40282383
2314.348,0.40274921
2315.901,0.40253163
2317.455,0.40215974
2319.012,0.40175452
2320.571,0.40148848
2322.131,0.40142319
2323.694,0.40143282
2325.259,0.40129576
2326.826,0.40087731
2328.395,0.40025132
2329.966,0.39965308
2331.54,0.39929879
2333.115,0.3992151
2334.692,0.39922621
2336.272,0.39909057
2337.854,0.39868164
2339.437,0.3980674
2341.023,0.39743246
2342.611,0.39693278
2344.201,0.39662057
2345.794,0.3964719
2347.388,0.39644581
2348.985,0.39649999
2350.583,0.39656205
2352.184,0.39652208
2353.787,0.3962932
2355.393,0.39588547
2357.0,0.3954208
2358.609,0.39505944
2360.221,0.39488124
2361.835,0.39482363
2363.451,0.39473333
2365.069,0.39449348
2366.69,0.39412857
2368.312,0.3937997
2369.937,0.39366378
2371.564,0.39371165
2373.194,0.39374891
2374.825,0.39355116
2376.459,0.39306019
2378.095,0.3924495
2379.733,0.39200492
2381.373,0.39190942
2383.016,0.39212197
2384.661,0.39244368
2386.308,0.39267776
2387.957,0.39273018
2389.609,0.39259555
2391.263,0.39229749
2392.919,0.39187337
2394.577,0.39141114
2396.238,0.3910593
2397.901,0.39094316
2399.566,0.39105317
2401.233,0.39122567
2402.903,0.39125989
2404.575,0.39107439
2406.25,0.39076532
2407.926,0.39050819
2409.606,0.39039323
2411.287,0.39036027
2412.971,0.39028562
2414.657,0.39012924
2416.345,0.38998796
2418.036,0.38999503
2419.729,0.39017356
2421.424,0.39040184
2423.122,0.39051692
2424.822,0.39044122
2426.524,0.3902107
2428.229,0.38989973
2429.936,0.38955811
2431.646,0.38921889
2433.358,0.38893785
2435.072,0.3887815
2436.789,0.38877181
2438.508,0.38884222
2440.229,0.38886787
2441.953,0.38874848
2443.679,0.38848917
2445.408,0.38819986
2447.139,0.38799529
2448.873,0.38788449
2450.609,0.3877592
2452.347,0.38750902
2454.088,0.38714597
2455.831,0.3867974
2457.577,0.38658166
2459.325,0.38650441
2461.076,0.38647366
2462.829,0.38638842
2464.585,0.38620197
2466.343,0.3859224
2468.104,0.38559635
2469.867,0.3852967
2471.632,0.38508751
2473.4,0.38496427
2475.171,0.38483439
2476.944,0.38459432
2478.72,0.38424077
2480.498,0.38388526
2482.278,0.38364149
2484.062,0.38350849
2485.847,0.38338741
2487.636,0.38319908
2489.427,0.38297057
2491.22,0.38278301
2493.016,0.38265179
2494.814,0.38249622
2496.615,0.3822468
2498.419,0.38195013
2500.225,0.38172699
2502.034,0.38161638
2503.845,0.38150507
2505.659,0.38122814
2507.476,0.38075207
2509.295,0.38024066
2511.117,0.3799233
2512.942,0.37989513
2514.769,0.38003669
2516.598,0.38011641
2518.431,0.37997453
2520.266,0.3796382
2522.103,0.37926907
2523.944,0.37899668
2525.787,0.37880394
2527.632,0.37856872
2529.48,0.37819821
2531.331,0.3777098
2533.185,0.37719515
2535.041,0.37674419
2536.9,0.37641792
2538.762,0.37624723
2540.627,0.37620931
2542.494,0.37621025
2544.364,0.37613644
2546.236,0.37595362
2548.112,0.37573265
2549.99,0.37556018
2551.87,0.37543713
2553.754,0.3752868
2555.64,0.3750607
2557.529,0.37480008
2559.421,0.37457882
2561.316,0.37442783
2563.213,0.37432751
2565.113,0.37424567
2567.016,0.37414845
2568.922,0.3739913
2570.831,0.37372468
2572.742,0.37333277
2574.656,0.3728603
2576.573,0.37238785
2578.493,0.37198227
2580.416,0.37167673
2582.342,0.37147815
2584.27,0.37137904
2586.201,0.37136708
2588.135,0.37141982
2590.072,0.37149721
2592.012,0.37154286
2593.955,0.37150988
2595.9,0.37139325
2597.849,0.3712275
2599.8,0.37104154
2601.755,0.3708267
2603.712,0.37056462
2605.672,0.37027702
2607.635,0.37001659
2609.601,0.36980241
2611.57,0.36958733
2613.542,0.36931733
2615.517,0.36902159
2617.495,0.36880215
2619.475,0.368721
2621.459,0.36872525
2623.446,0.36868926
2625.435,0.36852849
2627.428,0.36825927
2629.424,0.36796043
2631.423,0.36769692
2633.424,0.36748413
2635.429,0.36730504
2637.437,0.36714309
2639.447,0.36699212
2641.461,0.36684497
2643.478,0.36669129
2645.498,0.36652506
2647.521,0.36635259
2649.547,0.36619668
2651.576,0.36609024
2653.609,0.36605916
2655.644,0.36609788
2657.682,0.36615303
2659.724,0.36614476
2661.768,0.36600785
2663.816,0.36573183
2665.867,0.365367
2667.921,0.36500048
2669.978,0.36471655
2672.038,0.3645705
2674.102,0.3645679
2676.168,0.36464345
2678.238,0.36467651
2680.311,0.36455598
2682.387,0.36424964
2684.467,0.36381818
2686.549,0.36337373
2688.635,0.36301411
2690.724,0.3627779
2692.816,0.3626512
2694.911,0.36259317
2697.01,0.36255172
2699.112,0.36246479
2701.217,0.3622854
2703.325,0.36201965
2705.437,0.36174337
2707.552,0.36153885
2709.67,0.36140135
2711.791,0.36123561
2713.916,0.36096579
2716.044,0.36063682
2718.175,0.36038403
2720.31,0.3603019
2722.448,0.36035804
2724.589,0.36045251
2726.734,0.36053537
2728.882,0.36063173
2731.034,0.36075785
2733.188,0.36084808
2735.347,0.36079563
2737.508,0.360567
2739.673,0.36025255
2741.841,0.35998847
2744.013,0.35983773
2746.188,0.3597527
2748.367,0.35965565
2750.549,0.35953949
2752.734,0.35948029
2754.923,0.35954886
2757.115,0.35971567
2759.311,0.35985072
2761.51,0.35983086
2763.713,0.35964837
2765.919,0.35940861
2768.129,0.35922065
2770.342,0.35911221
2772.559,0.35904172
2774.779,0.3589746
2777.003,0.35892301
2779.23,0.35892052
2781.461,0.35897844
2783.696,0.35907384
2785.934,0.35916225
2788.175,0.3591941
2790.42,0.35914267
2792.669,0.35903072
2794.922,0.35891914
2797.178,0.35884665
2799.437,0.35879283
2801.7,0.35871081
2803.967,0.35859248
2806.238,0.35848125
2808.512,0.35840522
2810.789,0.35832196
2813.071,0.35816084
2815.356,0.35791596
2817.645,0.35767605
2819.937,0.35754743
2822.233,0.35755214
2824.533,0.35761044
2826.837,0.35762566
2829.144,0.35757471
2831.455,0.35751658
2833.77,0.35751443
2836.089,0.35755472
2838.411,0.357553
2840.737,0.35743832
2843.067,0.35721958
2845.401,0.35696558
2847.739,0.3567276
2850.08,0.35649925
2852.425,0.35624847
2854.774,0.35597787
2857.127,0.35574313
2859.484,0.35560694
2861.844,0.35558112
2864.209,0.35562153
2866.577,0.35567563
2868.949,0.35573184
2871.325,0.35581705
2873.705,0.35594995
2876.089,0.35608754
2878.477,0.35611466
2880.869,0.35590885
2883.265,0.3554489
2885.664,0.35487814
2888.068,0.3544527
2890.476,0.35437763
2892.887,0.35464843
2895.303,0.35504137
2897.723,0.35528418
2900.146,0.35525189
2902.574,0.35501591
2905.006,0.35472706
2907.441,0.35447736
2909.881,0.35427695
2912.325,0.35412664
2914.773,0.35405487
2917.225,0.35407171
2919.681,0.35411122
2922.142,0.35406263
2924.606,0.35387147
2927.075,0.35360302
2929.547,0.35338798
2932.024,0.35330498
2934.505,0.35331282
2936.99,0.35329415
2939.479,0.35316823
2941.973,0.352961
2944.471,0.35277069
2946.973,0.35266283
2949.479,0.3526086
2951.989,0.35252354
2954.504,0.35235726
2957.023,0.35214399
2959.546,0.35196601
2962.073,0.35187332
2964.605,0.35183971
2967.141,0.35179324
2969.681,0.35167923
2972.226,0.35150273
2974.775,0.35131415
2977.328,0.35116509
2979.886,0.35107875
2982.448,0.35105775
2985.015,0.3510936
2987.586,0.35114634
2990.161,0.3511328
2992.74,0.35096902
2995.324,0.35064386
2997.913,0.35024605
3000.506,0.34990765
3003.103,0.34971944
3005.705,0.34968508
3008.312,0.34973438
3010.922,0.34977338
3013.538,0.34974393
3016.158,0.34966542
3018.782,0.34962091
3021.411,0.3496758
3024.044,0.34979378
3026.683,0.34985
3029.325,0.34974363
3031.972,0.34950649
3034.624,0.34928486
3037.281,0.34920121
3039.942,0.34924832
3042.607,0.34930757
3045.278,0.34924965
3047.953,0.34902326
3050.632,0.34868441
3053.317,0.34836312
3056.006,0.34818343
3058.7,0.34817954
3061.398,0.34826719
3064.101,0.34830205
3066.809,0.3481952
3069.522,0.3479815
3072.239,0.34777345
3074.962,0.34765711
3077.689,0.34764048
3080.421,0.34767917
3083.157,0.34772559
3085.899,0.34774924
3088.645,0.3477354
3091.396,0.34769137
3094.153,0.3476511
3096.914,0.34764548
3099.679,0.3476548
3102.45,0.34760294
3105.226,0.34740902
3108.007,0.34706807
3110.792,0.34668003
3113.583,0.34639855
3116.378,0.34632518
3119.179,0.34643552
3121.985,0.34659331
3124.795,0.34665008
3127.611,0.34655681
3130.431,0.34638598
3133.257,0.34625225
3136.088,0.34620753
3138.924,0.34620864
3141.765,0.34617972
3144.611,0.34609351
3147.462,0.34598822
3150.319,0.34590723
3153.18,0.34583129
3156.047,0.34568366
3158.919,0.34540383
3161.796,0.34501977
3164.678,0.34463435
3167.566,0.34435012
3170.458,0.34420313
3173.356,0.34415546
3176.26,0.34413814
3179.168,0.34410221
3182.082,0.34404338
3185.001,0.3439796
3187.926,0.34391393
3190.856,0.34382058
3193.791,0.34367037
3196.731,0.34347092
3199.677,0.34327671
3202.629,0.34315208
3205.585,0.34311344
3208.548,0.34310582
3211.515,0.3430499
3214.488,0.34292538
3217.467,0.34280723
3220.451,0.34280171
3223.441,0.3429279
3226.436,0.34306315
3229.437,0.34303037
3232.443,0.34275873
3235.455,0.34236332
3238.472,0.34204935
3241.495,0.34193157
3244.523,0.34194973
3247.558,0.34195322
3250.598,0.34184994
3253.643,0.34167039
3256.694,0.34150182
3259.751,0.34137912
3262.814,0.34125708
3265.882,0.34108573
3268.956,0.3408936
3272.036,0.34078141
3275.122,0.34082749
3278.213,0.34100037
3281.31,0.34117151
3284.413,0.34122131
3287.522,0.34113788
3290.637,0.34101706
3293.757,0.34096353
3296.884,0.34098806
3300.016,0.34100686
3303.155,0.34093627
3306.299,0.34076403
3309.449,0.34052455
3312.605,0.34024711
3315.767,0.33995269
3318.936,0.33969249
3322.11,0.33955109
3325.29,0.33958763
3328.476,0.3397727
3331.669,0.34000651
3334.867,0.34020797
3338.072,0.34036689
3341.282,0.34049359
3344.499,0.34054189
3347.722,0.3404307
3350.952,0.34016391
3354.187,0.33987985
3357.429,0.33974365
3360.677,0.33979717
3363.931,0.33995624
3367.191,0.3401528
3370.458,0.34042179
3373.731,0.34080533
3377.01,0.34121366
3380.296,0.34145533
3383.588,0.34142072
3386.886,0.34117175
3390.191,0.34083875
3393.502,0.34051136
3396.82,0.34027208
3400.144,0.34025234
3403.475,0.34054058
3406.812,0.3410218
3410.156,0.34140317
3413.506,0.34145177
3416.862,0.34118498
3420.226,0.3408092
3423.596,0.34055992
3426.972,0.3406449
3430.355,0.34123159
3433.745,0.34231889
3437.141,0.34359881
3440.545,0.34459469
3443.954,0.34507091
3447.371,0.34523701
3450.794,0.34540173
3454.224,0.34547856
3457.661,0.34499139
3461.105,0.34367605
3464.556,0.34202374
3468.013,0.34108098
3471.477,0.34167274
3474.948,0.34372426
3478.426,0.34613778
3481.911,0.34748886
3485.403,0.34724949
3488.902,0.3462329
3492.408,0.34560823
3495.921,0.3457386
3499.441,0.34614482
3502.968,0.34644231
3506.502,0.34697314
3510.043,0.34822291
3513.592,0.34977898
3517.147,0.35028283
3520.71,0.34870567
3524.28,0.3454646
3527.857,0.34196316
3531.441,0.33951762
3535.032,0.33906475
3538.631,0.34138077
3542.237,0.34699985
3545.851,0.35565967
3549.471,0.36564901
3553.099,0.3737281
3556.735,0.37639408
3560.378,0.37230721
3564.028,0.36374481
3567.686,0.35509864
3571.351,0.34991485
3575.024,0.34925206
3578.704,0.35170289
3582.392,0.35459954
3586.088,0.3562501
3589.791,0.3572085
3593.501,0.35881228
3597.22,0.36112565
3600.946,0.36282562
3604.679,0.36272607
3608.421,0.36080864
3612.17,0.35775279
3615.926,0.35438558
3619.691,0.35191647
3623.463,0.35194019
3627.244,0.35554586
3631.032,0.36213763
3634.828,0.36894002
3638.632,0.37245221
3642.444,0.37160567
3646.263,0.36863456
3650.091,0.36609613
3653.927,0.36415278
3657.771,0.36101659
3661.623,0.35608356
3665.483,0.35229287
3669.351,0.35469686
3673.227,0.36766667
3677.111,0.39192436
3681.004,0.41753091
3684.905,0.42238078
3688.814,0.40081988
3692.731,0.37338441
3696.656,0.35495657
3700.59,0.34731824
3704.532,0.34745503
3708.483,0.35201045
3712.442,0.35893664
3716.409,0.36750543
3720.385,0.37651561
3724.37,0.38273032
3728.362,0.38263107
3732.364,0.3763983
3736.374,0.36795122
3740.392,0.36086692
3744.419,0.35608953
3748.455,0.35279574
3752.499,0.3504174
3756.553,0.3498318
3760.614,0.35261028
3764.685,0.35919577
3768.764,0.36764586
3772.853,0.37438492
3776.95,0.37719531
3781.056,0.3765785
3785.17,0.37320301
3789.294,0.36648479
3793.427,0.35717582
3797.568,0.3488873
3801.719,0.34532983
3805.879,0.34751485
3810.048,0.3533872
3814.225,0.35949408
3818.412,0.36405822
3822.609,0.36783199
3826.814,0.37113393
3831.029,0.37185377
3835.252,0.36788808
3839.486,0.36042673
3843.728,0.35262197
3847.98,0.34632128
3852.241,0.34156616
3856.512,0.33804236
3860.792,0.33595644
3865.081,0.33555924
3869.38,0.33641479
3873.689,0.33754976
3878.007,0.33838691
3882.334,0.33926728
3886.672,0.34075656
3891.019,0.34250797
3895.375,0.34309809
3899.742,0.34140994
3904.118,0.33822179
3908.504,0.33583672
3912.9,0.3361825
3917.305,0.33945804
3921.721,0.34398124
3926.146,0.34716567
3930.581,0.34733633
3935.027,0.34489949
3939.482,0.34177728
3943.948,0.34001219
3948.423,0.34060955
3952.909,0.34287166
3957.405,0.3448257
3961.911,0.34548937
3966.427,0.34696824
3970.954,0.35309304
3975.491,0.36574558
3980.038,0.38152732
3984.595,0.39227411
3989.163,0.39416254
3993.742,0.39284748
3998.33,0.39355878
4002.93,0.39293395
4007.54,0.38377536
4012.16,0.36758964
4016.791,0.35418628
4021.433,0.35042745
4026.086,0.35684973
4030.749,0.36834462
4035.423,0.37527628
4040.108,0.37085814
4044.804,0.35840201
4049.51,0.34572496
4054.228,0.33738136
4058.956,0.33386584
4063.695,0.33339724
4068.446,0.33343099
4073.207,0.33199622
4077.98,0.3285139
4082.764,0.32360142
4087.559,0.3185778
4092.365,0.31525696
4097.183,0.3155522
4102.012,0.32050956
4106.852,0.3288481
4111.703,0.33579122
4116.566,0.33542164
4121.441,0.32712889
4126.327,0.31652279
4131.224,0.30902685
4136.133,0.3062987
4141.054,0.30681482
4145.987,0.30748609
4150.931,0.30588488
4155.887,0.30201819
4160.854,0.29780052
4165.834,0.29543688
4170.826,0.29670886
4175.829,0.30271981
4180.844,0.31277782
4185.872,0.32234408
4190.911,0.32365626
4195.963,0.31340379
4201.026,0.29739128
4206.102,0.283078
4211.19,0.27382732
4216.291,0.27032806
4221.404,0.27276838
4226.529,0.28076388
4231.666,0.29151505
4236.816,0.29896869
4241.979,0.29821805
4247.154,0.2908229
4252.341,0.2810446
4257.542,0.26980395
4262.754,0.25586643
4267.98,0.24023731
4273.219,0.22611382
4278.47,0.21558213
4283.734,0.20872207
4289.011,0.2048368
4294.301,0.20324934
4299.604,0.20299
4304.92,0.20249427
4310.25,0.20079025
4315.592,0.1991843
4320.948,0.20044676
4326.317,0.20577376
4331.699,0.21170971
4337.095,0.21040829
4342.504,0.1988122
4347.926,0.18362455
4353.362,0.17148653
4358.811,0.16390785
4364.275,0.15973379
4369.751,0.15739466
4375.242,0.15574559
4380.746,0.15429062
4386.264,0.15328881
4391.796,0.15374561
4397.342,0.15689547
4402.902,0.16294724
4408.476,0.16915825
4414.064,0.16982627
4419.666,0.16284865
4425.282,0.15353617
4430.913,0.14741675
4436.558,0.14606037
4442.217,0.14829649
4447.891,0.1513702
4453.579,0.15247301
4459.281,0.15108587
4464.998,0.1489306
4470.73,0.147718
4476.477,0.1479621
4482.238,0.14904983
4488.014,0.14966419
4493.805,0.14863248
4499.611,0.14596417
4505.431,0.14286799
4511.267,0.1406319
4517.118,0.13974941
4522.984,0.13992333
4528.865,0.14057866
4534.762,0.14130889
4540.674,0.14186556
4546.601,0.14200253
4552.543,0.14176973
4558.502,0.14190035
4564.475,0.1433887
4570.465,0.14638348
4576.47,0.14933243
4582.491,0.1497421
4588.527,0.14690228
4594.58,0.14278209
4600.648,0.13956739
4606.732,0.13798038
4612.833,0.13760466
4618.949,0.13771601
4625.082,0.13782305
4631.231,0.13783586
4637.397,0.13810603
4643.578,0.13938682
4649.777,0.14243635
4655.991,0.14718226
4662.223,0.15185946
4668.471,0.1535693
4674.735,0.15120463
4681.017,0.14682839
4687.315,0.14302108
4693.63,0.1407451
4699.962,0.13967013
4706.312,0.13924688
4712.678,0.13929593
4719.062,0.13983424
4725.463,0.14068302
4731.881,0.14152455
4738.316,0.14231453
4744.769,0.14334099
4751.24,0.1446995
4757.728,0.14583668
4764.234,0.14587105
4770.758,0.14455846
4777.299,0.14269969
4783.859,0.14138994
4790.436,0.14112108
4797.032,0.14157946
4803.645,0.14208276
4810.277,0.14224463
4816.927,0.14227174
4823.596,0.14263796
4830.283,0.14358152
4836.988,0.14492086
4843.712,0.14623406
4850.455,0.14712584
4857.216,0.14735114
4863.996,0.14684916
4870.795,0.14580341
4877.613,0.14462706
4884.451,0.14375594
4891.307,0.14340558
4898.182,0.14353664
4905.077,0.14401651
4911.991,0.14472697
4918.925,0.14549252
4925.878,0.14604062
4932.851,0.14621355
4939.844,0.14620509
4946.856,0.14638332
4953.888,0.14681849
4960.941,0.14710185
4968.013,0.14675898
4975.105,0.14583392
4982.218,0.14487438
4989.351,0.14433006
4996.504,0.1441581
5003.678,0.14402452
5010.872,0.14375731
5018.087,0.14349643
5025.323,0.14343634
5032.58,0.14356624
5039.857,0.14373304
5047.156,0.14387792
5054.475,0.14408804
5061.816,0.14438738
5069.179,0.14457799
5076.562,0.14439042
5083.967,0.14378972
5091.394,0.143051
5098.842,0.14251035
5106.312,0.14227965
5113.804,0.14219748
5121.318,0.14201899
5128.854,0.14163743
5136.412,0.14114846
5143.992,0.14075194
5151.595,0.14061513
5159.22,0.14077184
5166.868,0.14107428
5174.538,0.141255
5182.231,0.14110739
5189.947,0.14063857
5197.686,0.14003539
5205.448,0.13948293
5213.233,0.13904407
5221.041,0.13872034
5228.873,0.13856205
5236.728,0.1386338
5244.607,0.13886896
5252.51,0.13903637
5260.436,0.13892465
5268.386,0.13854189
5276.36,0.13806954
5284.358,0.13764332
5292.381,0.13725707
5300.428,0.13686698
5308.499,0.13650655
5316.595,0.13627059
5324.715,0.13622224
5332.86,0.13635033
5341.031,0.13658227
5349.226,0.13678548
5357.446,0.1367828
5365.692,0.13645594
5373.962,0.13587018
5382.259,0.13524729
5390.581,0.13476418
5398.928,0.13438764
5407.302,0.13395564
5415.701,0.13341002
5424.127,0.13288159
5432.579,0.13253232
5441.057,0.13237143
5449.561,0.13227128
5458.092,0.13212755
5466.65,0.13195303
5475.234,0.13182003
5483.846,0.13176275
5492.484,0.13175792
5501.15,0.13175979
5509.843,0.13170915
5518.564,0.13154156
5527.312,0.13126389
5536.087,0.13104416
5544.891,0.13114308
5553.723,0.13165425
5562.582,0.13230364
5571.47,0.13258957
5580.387,0.13220564
5589.332,0.13135287
5598.305,0.13059919
5607.307,0.13037979
5616.339,0.13061645
5625.399,0.1308212
5634.489,0.13056335
5643.607,0.12984566
5652.756,0.12904661
5661.934,0.12854401
5671.142,0.12841947
5680.379,0.128492
5689.647,0.12857148
5698.945,0.12863174
5708.274,0.12875267
5717.633,0.12896666
5727.022,0.12922574
5736.443,0.12949257
5745.894,0.12979369
5755.377,0.13014878
5764.89,0.13047757
5774.436,0.13062022
5784.012,0.13045448
5793.621,0.12998866
5803.262,0.12935839
5812.934,0.12875256
5822.639,0.12833477
5832.376,0.12818929
5842.146,0.12829159
5851.948,0.12853258
5861.783,0.12880294
5871.652,0.12905346
5881.553,0.12925849
5891.488,0.12934806
5901.457,0.1292387
5911.459,0.12894727
5921.495,0.12862849
5931.565,0.12846488
5941.67,0.12852613
5951.809,0.12874531
5961.982,0.12900324
5972.19,0.129203
5982.433,0.12928559
5992.711,0.12923216
6003.025,0.12908174
6013.374,0.12892562
6023.759,0.12885265
6034.179,0.12889483
6044.636,0.12902264
6055.129,0.12918053
6065.658,0.12931548
6076.224,0.12939464
6086.826,0.12942466
6097.466,0.12945286
6108.143,0.12952464
6118.857,0.12963519
6129.609,0.12973241
6140.398,0.12977089
6151.226,0.12976055
6162.091,0.12977581
6172.996,0.12993288
6183.938,0.13033875
6194.92,0.13100771
6205.94,0.13178389
6217.0,0.13236762
6228.099,0.13248965
6239.237,0.13211715
6250.416,0.13149613
6261.635,0.13096897
6272.893,0.13073922
6284.193,0.13079629
6295.533,0.13101798
6306.914,0.13128801
6318.336,0.13151689
6329.799,0.13161827
6341.304,0.13153859
6352.851,0.13132584
6364.44,0.13112613
6376.071,0.13107227
6387.745,0.13117204
6399.461,0.13132011
6411.221,0.13141194
6423.023,0.13142717
6434.869,0.1314166
6446.759,0.1314443
6458.693,0.13156094
6470.671,0.13179394
6482.693,0.13211698
6494.76,0.13242288
6506.872,0.1325677
6519.029,0.13248163
6531.231,0.13224342
6543.48,0.13202681
6555.774,0.13195945
6568.114,0.13203215
6580.501,0.1321405
6592.934,0.13219951
6605.415,0.1322119
6617.943,0.13224117
6630.518,0.13233543
6643.141,0.13248204
6655.812,0.13263046
6668.532,0.13275383
6681.3,0.13287188
6694.117,0.13301087
6706.983,0.13315678
6719.899,0.13326626
6732.864,0.13332411
6745.879,0.13337354
6758.945,0.13347725
6772.062,0.13366692
6785.229,0.13394949
6798.448,0.13433624
6811.718,0.13481764
6825.039,0.13530081
6838.413,0.13562606
6851.84,0.13568704
6865.319,0.13553166
6878.851,0.13532677
6892.437,0.13522315
6906.076,0.13526452
6919.769,0.13541955
6933.517,0.13565783
6947.319,0.13596226
6961.176,0.13629019
6975.089,0.13657242
6989.057,0.13676607
7003.081,0.13689349
7017.161,0.13701495
7031.298,0.1371713
7045.492,0.13736311
7059.743,0.13757376
7074.052,0.13779549
7088.419,0.13802798
7102.845,0.13826627
7117.329,0.13849719
7131.872,0.13870741
7146.475,0.13889377
7161.137,0.13907054
7175.86,0.13926832
7190.643,0.13951391
7205.487,0.13980865
7220.393,0.14012363
7235.36,0.14042231
7250.39,0.14069281
7265.481,0.14095623
7280.636,0.14124118
7295.854,0.14154993
7311.135,0.14185161
7326.481,0.14210726
7341.891,0.1423033
7357.366,0.14246571
7372.906,0.14264556
7388.512,0.14288896
7404.184,0.14321023
7419.922,0.14358255
7435.728,0.14395631
7451.601,0.14429281
7467.541,0.14458761
7483.55,0.14486439
7499.628,0.1451488
7515.774,0.14545465
7531.99,0.14579355
7548.277,0.14617864
7564.633,0.14659976
7581.061,0.14700564
7597.56,0.14734959
7614.131,0.1476773
7630.774,0.14814142
7647.491,0.14886797
7664.28,0.14978801
7681.143,0.15063433
7698.08,0.15114296
7715.093,0.15126357
7732.18,0.15117369
7749.343,0.15111673
7766.583,0.15125008
7783.899,0.15162023
7801.292,0.15220014
7818.764,0.15289354
7836.313,0.15353841
7853.942,0.15398868
7871.649,0.15423102
7889.437,0.15440129
7907.305,0.15466915
7925.254,0.15510277
7943.285,0.15563845
7961.398,0.15616027
7979.594,0.15660299
7997.872,0.15699817
8016.235,0.157453
8034.682,0.15808988
8053.214,0.15897621
8071.832,0.16006846
8090.535,0.16119159
8109.326,0.16208374
8128.204,0.16251857
8147.169,0.16245948
8166.224,0.16212969
8185.368,0.16189373
8204.601,0.16200362
8223.925,0.16242103
8243.34,0.16289598
8262.847,0.16322253
8282.446,0.16340969
8302.139,0.16361175
8321.925,0.16393106
8341.805,0.16431734
8361.781,0.16464947
8381.852,0.1648787
8402.02,0.16508601
8422.285,0.16541256
8442.648,0.16594478
8463.109,0.16665317
8483.67,0.16742353
8504.331,0.16814301
8525.092,0.16876671
8545.955,0.16932477
8566.921,0.16988087
8587.989,0.17048242
8609.161,0.1711296
8630.437,0.17176556
8651.819,0.17229164
8673.307,0.17261692
8694.902,0.17272348
8716.604,0.17270084
8738.415,0.17271253
8760.335,0.172909
8782.365,0.17334615
8804.507,0.17396323
8826.76,0.17462101
8849.125,0.17517067
8871.604,0.17552846
8894.198,0.17572498
8916.907,0.17589201
8939.732,0.17617176
8962.673,0.17661375
8985.733,0.17715386
9008.912,0.17769677
9032.21,0.17821113
9055.629,0.1787329
9079.17,0.1792846
9102.833,0.17983101
9126.62,0.18034542
9150.531,0.18089761
9174.568,0.18161729
9198.731,0.18253032
9223.022,0.18345501
9247.441,0.18411472
9271.99,0.18437905
9296.669,0.18439183
9321.48,0.18444765
9346.423,0.18474306
9371.5,0.18524057
9396.712,0.18575655
9422.06,0.18615135
9447.545,0.18643976
9473.167,0.186749
9498.929,0.18718861
9524.832,0.18776142
9550.876,0.18838334
9577.062,0.18897332
9603.393,0.18951887
9629.868,0.19006996
9656.49,0.19069519
9683.259,0.19145023
9710.176,0.19234845
9737.244,0.19330952
9764.463,0.19413829
9791.834,0.19461645
9819.359,0.19467443
9847.039,0.19447957
9874.875,0.19432474
9902.869,0.19442053
9931.022,0.19479546
9959.336,0.19537004
9987.811,0.19606737
10016.449,0.19683532
10045.252,0.19761504
10074.221,0.19835234
10103.357,0.19904377
10132.662,0.19972616
10162.137,0.20040459
10191.784,0.20101835
10221.604,0.20150656
10251.6,0.20189576
10281.771,0.20230358
10312.121,0.20285617
10342.65,0.20360446
10373.36,0.20450082
10404.253,0.20543213
10435.331,0.20628038
10466.594,0.20698826
10498.045,0.20758804
10529.686,0.20816314
10561.517,0.20876303
10593.542,0.20935694
10625.761,0.20987348
10658.176,0.21027558
10690.79,0.21059004
10723.604,0.21087303
10756.619,0.21116545
10789.839,0.2114788
10823.264,0.21180806
10856.896,0.21214263
10890.738,0.2124791
10924.791,0.21283879
10959.058,0.21327145
10993.541,0.21382351
11028.24,0.21449124
11063.16,0.21521519
11098.301,0.21593576
11133.665,0.21665417
11169.256,0.2174158
11205.075,0.21822276
11241.124,0.21897645
11277.405,0.21953951
11313.921,0.21987146
11350.675,0.22008406
11387.667,0.22035247
11424.901,0.22077387
11462.38,0.22132929
11500.105,0.22196894
11538.079,0.22269015
11576.304,0.22351038
11614.783,0.22438515
11653.518,0.22519429
11692.513,0.22583045
11731.769,0.22628953
11771.29,0.22666209
11811.077,0.22704378
11851.134,0.22746435
11891.464,0.2279077
11932.068,0.2283848
11972.951,0.22896672
12014.114,0.22971872
12055.562,0.23059207
12097.296,0.2313907
12139.32,0.23187749
12181.636,0.23195293
12224.249,0.23175199
12267.16,0.23156197
12310.373,0.23162214
12353.892,0.23197971
12397.719,0.23251393
12441.859,0.2330746
12486.313,0.23359663
12531.086,0.23410433
12576.18,0.23463739
12621.601,0.23518612
12667.35,0.23569701
12713.432,0.23612881
12759.85,0.23649696
12806.608,0.23686233
12853.71,0.23728224
12901.159,0.23778067
12948.96,0.23835263
12997.116,0.23898082
13045.631,0.23962965
13094.51,0.24024442
13143.756,0.24079009
13193.373,0.24130686
13243.366,0.24190955
13293.74,0.24268997
13344.497,0.24360562
13395.644,0.24448358
13447.183,0.24515552
13499.121,0.24559426
13551.461,0.24591875
13604.208,0.24627918
13657.367,0.24675512
13710.943,0.24735425
13764.941,0.24806603
13819.365,0.2488748
13874.221,0.24972113
13929.515,0.25049063
13985.25,0.25107578
14041.433,0.25145574
14098.068,0.25171109
14155.163,0.25196105
14212.721,0.25229291
14270.749,0.25272997
14329.252,0.25323996
14388.237,0.25376169
14447.709,0.25425003
14507.674,0.25472504
14568.139,0.25527891
14629.109,0.25600706
14690.592,0.25690343
14752.594,0.25782965
14815.121,0.25860661
14878.179,0.25915007
14941.777,0.25951894
15005.92,0.25984004
15070.616,0.26019891
15135.871,0.26060503
15201.695,0.26104031
15268.092,0.26150914
15335.072,0.26203243
15402.642,0.26260796
15470.81,0.26320341
15539.583,0.26378325
15608.97,0.26433323
15678.979,0.26485282
15749.619,0.2653439
15820.897,0.26581638
15892.824,0.26629917
15965.407,0.26682881
