Database of Origin,University of Winnipeg Spectrophotometer Facility
Sample Description,"HOSERLab master pyroxenes, FTIR data"
Date Added,2016-12-14 03:34:49.801396

Data ID,FTIR_PYX_10         
Sample ID,PYX108
Mineral Name,Orthopyroxene
Grain Size,45-90 um
Viewing Geometry,"i=30, e=0"
Material Class,Inosilicate

Wavelength
2000.56,0.35012323
2001.142,0.35026807
2001.725,0.35047401
2002.307,0.35073544
2002.891,0.35096592
2003.474,0.35118776
2004.058,0.35147724
2004.643,0.35177382
2005.227,0.35196641
2005.812,0.35209015
2006.397,0.35224533
2006.983,0.35244716
2007.569,0.35270359
2008.155,0.3530734
2008.742,0.3535195
2009.329,0.35389073
2009.916,0.35411938
2010.504,0.35426038
2011.092,0.3543382
2011.68,0.35436636
2012.269,0.35446654
2012.858,0.35477022
2013.447,0.35523837
2014.037,0.3557214
2014.627,0.35610281
2015.217,0.35630255
2015.808,0.35628902
2016.399,0.35617748
2016.99,0.3561665
2017.582,0.35633156
2018.174,0.35657572
2018.766,0.35677805
2019.359,0.3568913
2019.952,0.35694342
2020.546,0.35700646
2021.139,0.35713663
2021.733,0.35731114
2022.328,0.35746991
2022.923,0.35760146
2023.518,0.35774932
2024.113,0.35797485
2024.709,0.35833132
2025.305,0.35879035
2025.902,0.35921175
2026.499,0.35946724
2027.096,0.35958044
2027.693,0.35966151
2028.291,0.35978712
2028.89,0.35999157
2029.488,0.36026979
2030.087,0.36053951
2030.686,0.36073698
2031.286,0.36093627
2031.886,0.36124631
2032.486,0.36163423
2033.087,0.36199697
2033.688,0.3623089
2034.289,0.36257645
2034.891,0.36277411
2035.493,0.36292735
2036.096,0.36310772
2036.698,0.36331201
2037.302,0.36349657
2037.905,0.36371591
2038.509,0.36404335
2039.113,0.36442548
2039.718,0.36476981
2040.322,0.3650836
2040.928,0.36538225
2041.533,0.36561864
2042.139,0.3657993
2042.746,0.36600998
2043.352,0.36627168
2043.959,0.36653676
2044.567,0.36680061
2045.174,0.36706476
2045.782,0.36726018
2046.391,0.36737411
2047.0,0.36752112
2047.609,0.36778346
2048.218,0.36810526
2048.828,0.36841043
2049.438,0.36866682
2050.049,0.36884046
2050.66,0.36894328
2051.271,0.36908467
2051.883,0.36932042
2052.495,0.36955858
2053.107,0.36972031
2053.72,0.36986616
2054.333,0.37006987
2054.947,0.37033994
2055.56,0.3706903
2056.175,0.37112502
2056.789,0.3715623
2057.404,0.37193094
2058.019,0.37225481
2058.635,0.37253372
2059.251,0.37269414
2059.867,0.3727684
2060.484,0.37290425
2061.101,0.37312344
2061.718,0.37329181
2062.336,0.37337196
2062.954,0.3734833
2063.573,0.37372258
2064.192,0.37410916
2064.811,0.37463057
2065.431,0.37516726
2066.051,0.37552627
2066.671,0.37568575
2067.292,0.37582587
2067.913,0.37603484
2068.534,0.37622923
2069.156,0.37640207
2069.778,0.37665809
2070.401,0.37696362
2071.024,0.37716996
2071.647,0.37729047
2072.271,0.37748266
2072.895,0.37777864
2073.519,0.37807062
2074.144,0.37828671
2074.769,0.37840203
2075.395,0.37840017
2076.02,0.37837943
2076.647,0.37852599
2077.273,0.37886411
2077.9,0.37922288
2078.528,0.37951584
2079.155,0.37982515
2079.784,0.38018838
2080.412,0.3805446
2081.041,0.38090286
2081.67,0.38131327
2082.3,0.38169681
2082.93,0.38192117
2083.56,0.38201296
2084.191,0.38210114
2084.822,0.38224638
2085.454,0.38244749
2086.085,0.3827118
2086.718,0.38300105
2087.35,0.38324836
2087.983,0.38348181
2088.617,0.38379322
2089.251,0.38416147
2089.885,0.38447614
2090.519,0.38470297
2091.154,0.38488058
2091.789,0.38502328
2092.425,0.38517058
2093.061,0.38541547
2093.697,0.38576815
2094.334,0.38611404
2094.971,0.38638337
2095.609,0.38660993
2096.247,0.3868173
2096.885,0.38701898
2097.524,0.38730209
2098.163,0.38771772
2098.803,0.38816094
2099.443,0.38852399
2100.083,0.38883105
2100.723,0.3890942
2101.364,0.38923302
2102.006,0.38925399
2102.648,0.38929244
2103.29,0.38940141
2103.932,0.38952709
2104.575,0.38967915
2105.219,0.38988797
2105.862,0.39005192
2106.506,0.39009715
2107.151,0.39017497
2107.796,0.39044302
2108.441,0.39077129
2109.087,0.39091647
2109.733,0.39085203
2110.379,0.39074564
2111.026,0.3907412
2111.673,0.39091405
2112.321,0.39126987
2112.969,0.3916948
2113.617,0.39203054
2114.266,0.39224951
2114.915,0.3924358
2115.565,0.39261976
2116.215,0.39274443
2116.865,0.39279377
2117.516,0.39283577
2118.167,0.39293881
2118.819,0.39311566
2119.471,0.39335934
2120.123,0.39367939
2120.776,0.39406237
2121.429,0.39442924
2122.082,0.3947049
2122.736,0.39490473
2123.391,0.39506204
2124.045,0.3951343
2124.7,0.39512395
2125.356,0.39520026
2126.012,0.39550005
2126.668,0.39590897
2127.325,0.39625021
2127.982,0.39653523
2128.64,0.39682367
2129.297,0.39705667
2129.956,0.39723994
2130.614,0.39753425
2131.274,0.39796951
2131.933,0.39836236
2132.593,0.39865256
2133.253,0.39897513
2133.914,0.39932587
2134.575,0.39954144
2135.237,0.39962919
2135.899,0.39974315
2136.561,0.39989431
2137.224,0.4000386
2137.887,0.40030384
2138.55,0.40077893
2139.214,0.40128083
2139.879,0.4016221
2140.544,0.40186482
2141.209,0.40209748
2141.874,0.40227128
2142.54,0.40240726
2143.207,0.40264397
2143.873,0.40296015
2144.541,0.40317449
2145.208,0.40324674
2145.876,0.40329197
2146.545,0.40333502
2147.214,0.40334858
2147.883,0.40343103
2148.553,0.40370005
2149.223,0.40410812
2149.893,0.40452014
2150.564,0.4048506
2151.235,0.40504216
2151.907,0.40508473
2152.579,0.40510845
2153.252,0.40527994
2153.925,0.4055951
2154.598,0.40590807
2155.272,0.40612026
2155.946,0.40622678
2156.621,0.40626293
2157.296,0.40630649
2157.972,0.4064471
2158.647,0.40669331
2159.324,0.4069987
2160.001,0.40737577
2160.678,0.40785456
2161.355,0.40835001
2162.033,0.4087144
2162.712,0.40890268
2163.39,0.40898105
2164.07,0.40901395
2164.749,0.40904322
2165.429,0.40911614
2166.11,0.40925115
2166.791,0.409434
2167.472,0.40968642
2168.154,0.41004967
2168.836,0.41047769
2169.519,0.41085828
2170.202,0.41115527
2170.885,0.411409
2171.569,0.41161356
2172.254,0.41172589
2172.938,0.41178415
2173.624,0.41188107
2174.309,0.41204403
2174.995,0.41226225
2175.682,0.41256413
2176.368,0.41295207
2177.056,0.413341
2177.743,0.41365491
2178.432,0.41389309
2179.12,0.41403241
2179.809,0.41401039
2180.499,0.41388
2181.189,0.41382456
2181.879,0.41396915
2182.57,0.41429288
2183.261,0.41471191
2183.952,0.41512074
2184.644,0.41540511
2185.337,0.41556495
2186.03,0.41573634
2186.723,0.41598321
2187.417,0.41620336
2188.111,0.41632321
2188.806,0.41639951
2189.501,0.41646693
2190.196,0.41648656
2190.892,0.41648059
2191.589,0.41653106
2192.285,0.41664663
2192.983,0.41679967
2193.68,0.4170338
2194.379,0.4173527
2195.077,0.41761893
2195.776,0.41773305
2196.476,0.41779371
2197.175,0.41795233
2197.876,0.41824652
2198.577,0.41864143
2199.278,0.41907104
2199.979,0.41939586
2200.682,0.41950029
2201.384,0.41944933
2202.087,0.41939743
2202.79,0.41938055
2203.494,0.41934366
2204.199,0.41932206
2204.903,0.41943217
2205.609,0.41969297
2206.314,0.41999861
2207.02,0.42026986
2207.727,0.42053019
2208.434,0.42082328
2209.141,0.42113355
2209.849,0.42141321
2210.557,0.42162298
2211.266,0.42172453
2211.975,0.42170879
2212.685,0.42166555
2213.395,0.4217146
2214.106,0.42182594
2214.817,0.42185192
2215.528,0.42177718
2216.24,0.42175446
2216.952,0.42186081
2217.665,0.42202781
2218.379,0.42221752
2219.092,0.42242478
2219.806,0.42253416
2220.521,0.42243882
2221.236,0.42223564
2221.952,0.42205851
2222.668,0.42186356
2223.384,0.4216197
2224.101,0.42148913
2224.818,0.4215854
2225.536,0.42178368
2226.254,0.42195461
2226.973,0.42212544
2227.692,0.42230692
2228.412,0.42242861
2229.132,0.42249417
2229.853,0.42255671
2230.574,0.42257874
2231.295,0.42252357
2232.017,0.42246171
2232.74,0.42242028
2233.462,0.42232458
2234.186,0.42217816
2234.91,0.42207834
2235.634,0.42203129
2236.359,0.42199768
2237.084,0.42204657
2237.809,0.42223233
2238.536,0.4224516
2239.262,0.42260632
2239.989,0.42270388
2240.717,0.42271702
2241.445,0.4226181
2242.173,0.42255269
2242.902,0.42264336
2243.631,0.42272042
2244.361,0.4225992
2245.092,0.42242119
2245.822,0.42239179
2246.554,0.42246259
2247.285,0.4225525
2248.017,0.42271681
2248.75,0.42288638
2249.483,0.42288451
2250.217,0.42280842
2250.951,0.42290778
2251.686,0.42310005
2252.421,0.42311775
2253.156,0.42302648
2253.892,0.42306953
2254.628,0.42319713
2255.365,0.42324253
2256.103,0.42328149
2256.841,0.42338713
2257.579,0.42337693
2258.318,0.42316126
2259.057,0.42296058
2259.797,0.42290292
2260.537,0.42282037
2261.278,0.42263171
2262.019,0.42249884
2262.761,0.42247264
2263.503,0.42238009
2264.246,0.42212661
2264.989,0.42178345
2265.732,0.42138191
2266.477,0.42092175
2267.221,0.42052997
2267.966,0.42033941
2268.712,0.42027849
2269.458,0.42016606
2270.204,0.41996302
2270.951,0.41977575
2271.699,0.41968276
2272.447,0.41965968
2273.195,0.41962849
2273.944,0.41949762
2274.694,0.41919545
2275.444,0.41873491
2276.194,0.41823607
2276.945,0.41781087
2277.696,0.41743112
2278.448,0.41698707
2279.201,0.41646961
2279.954,0.41597149
2280.707,0.41548501
2281.461,0.41485119
2282.215,0.41397485
2282.97,0.41294696
2283.725,0.41186969
2284.481,0.41070336
2285.237,0.40938361
2285.994,0.40798823
2286.752,0.40670328
2287.509,0.40569546
2288.268,0.4050603
2289.026,0.4048049
2289.786,0.40485067
2290.545,0.4051294
2291.306,0.40566374
2292.067,0.40647018
2292.828,0.40739142
2293.59,0.40813538
2294.352,0.40850255
2295.115,0.40848972
2295.878,0.40816395
2296.642,0.4075759
2297.406,0.40685623
2298.171,0.40623168
2298.936,0.40583902
2299.702,0.40560733
2300.468,0.40537986
2301.235,0.40503287
2302.002,0.40443399
2302.77,0.40346526
2303.539,0.40217836
2304.307,0.4007934
2305.077,0.3994818
2305.847,0.39826135
2306.617,0.39710146
2307.388,0.3959653
2308.159,0.39476255
2308.931,0.39344747
2309.703,0.39218295
2310.476,0.39126459
2311.25,0.39088628
2312.024,0.39109978
2312.798,0.39194829
2313.573,0.39346603
2314.348,0.39554384
2315.124,0.39789878
2315.901,0.40019726
2316.678,0.40218832
2317.455,0.40376694
2318.234,0.40496719
2319.012,0.40591301
2319.791,0.40673869
2320.571,0.40754447
2321.351,0.4084214
2322.131,0.40948346
2322.913,0.41079931
2323.694,0.41228675
2324.476,0.41377495
2325.259,0.41519506
2326.042,0.41660474
2326.826,0.4180007
2327.61,0.41924662
2328.395,0.42023784
2329.18,0.42099986
2329.966,0.42160001
2330.753,0.42209853
2331.54,0.42259392
2332.327,0.42315571
2333.115,0.42373622
2333.903,0.42426579
2334.692,0.42476792
2335.482,0.42526979
2336.272,0.42571791
2337.062,0.42607602
2337.854,0.42638222
2338.645,0.42665768
2339.437,0.4268921
2340.23,0.42712735
2341.023,0.4274096
2341.817,0.42770895
2342.611,0.42799924
2343.406,0.42831966
2344.201,0.42866068
2344.997,0.42891936
2345.794,0.42903802
2346.591,0.42905759
2347.388,0.42904632
2348.186,0.42910632
2348.985,0.42934118
2349.784,0.42965785
2350.583,0.42978268
2351.384,0.4296169
2352.184,0.42937347
2352.986,0.42926546
2353.787,0.42932582
2354.59,0.42954841
2355.393,0.42989008
2356.196,0.43015464
2357.0,0.43019271
2357.804,0.43014131
2358.609,0.43019128
2359.415,0.43030109
2360.221,0.43038002
2361.028,0.43048675
2361.835,0.43061369
2362.643,0.43057851
2363.451,0.43032814
2364.26,0.43003481
2365.069,0.42978955
2365.879,0.42951008
2366.69,0.4291901
2367.501,0.4289176
2368.312,0.42866413
2369.125,0.42833143
2369.937,0.42793108
2370.751,0.42751016
2371.564,0.42703888
2372.379,0.42653193
2373.194,0.42610852
2374.009,0.42581395
2374.825,0.4255469
2375.642,0.42523097
2376.459,0.42489005
2377.276,0.42454197
2378.095,0.42415901
2378.913,0.42372117
2379.733,0.42321757
2380.553,0.42265715
2381.373,0.42212061
2382.194,0.42172532
2383.016,0.42153784
2383.838,0.42158051
2384.661,0.42184193
2385.484,0.42220855
2386.308,0.42249706
2387.132,0.42263577
2387.957,0.42271246
2388.783,0.42283457
2389.609,0.42308027
2390.435,0.42354172
2391.263,0.42422447
2392.09,0.42494994
2392.919,0.4255442
2393.748,0.42606896
2394.577,0.42670253
2395.407,0.42748593
2396.238,0.42834716
2397.069,0.42926491
2397.901,0.43022868
2398.733,0.43115891
2399.566,0.43201107
2400.399,0.43284483
2401.233,0.43366583
2402.068,0.43435666
2402.903,0.43486865
2403.739,0.43531747
2404.575,0.4357853
2405.412,0.43620728
2406.25,0.43654766
2407.088,0.43687499
2407.926,0.43716999
2408.766,0.43728969
2409.606,0.43723247
2410.446,0.43719753
2411.287,0.43728012
2412.128,0.43735627
2412.971,0.43734685
2413.813,0.43734146
2414.657,0.43739547
2415.5,0.43747497
2416.345,0.43762734
2417.19,0.43793327
2418.036,0.43826745
2418.882,0.43838699
2419.729,0.43826498
2420.576,0.43808398
2421.424,0.43794926
2422.272,0.4378442
2423.122,0.4377935
2423.971,0.43783586
2424.822,0.43790995
2425.673,0.43796783
2426.524,0.43811312
2427.376,0.43844077
2428.229,0.43884775
2429.082,0.43915681
2429.936,0.43931143
2430.791,0.43931922
2431.646,0.43914021
2432.501,0.43879786
2433.358,0.43848963
2434.214,0.43840468
2435.072,0.43850772
2435.93,0.43865001
2436.789,0.4387943
2437.648,0.43896818
2438.508,0.43911405
2439.368,0.4391891
2440.229,0.43929482
2441.091,0.43951305
2441.953,0.43973753
2442.816,0.43985748
2443.679,0.43994024
2444.543,0.44006095
2445.408,0.44016912
2446.273,0.44028697
2447.139,0.44056934
2448.006,0.44100761
2448.873,0.44135618
2449.74,0.44146666
2450.609,0.44141561
2451.478,0.441274
2452.347,0.44107307
2453.217,0.44095472
2454.088,0.44103845
2454.959,0.44121031
2455.831,0.44131649
2456.704,0.44137954
2457.577,0.44141148
2458.451,0.44128931
2459.325,0.441015
2460.2,0.44079383
2461.076,0.44073989
2461.952,0.44080228
2462.829,0.44097549
2463.707,0.44126968
2464.585,0.4415548
2465.464,0.4417376
2466.343,0.44193158
2467.223,0.44222886
2468.104,0.44255122
2468.985,0.44287617
2469.867,0.4432837
2470.749,0.44371293
2471.632,0.44402444
2472.516,0.44427505
2473.4,0.44458535
2474.285,0.44489762
2475.171,0.44517068
2476.057,0.44553867
2476.944,0.44600697
2477.832,0.44634582
2478.72,0.44649027
2479.608,0.44664565
2480.498,0.4469023
2481.388,0.44716826
2482.278,0.4474691
2483.17,0.44786235
2484.062,0.44817951
2484.954,0.44827426
2485.847,0.44830509
2486.741,0.44842944
2487.636,0.44856082
2488.531,0.44867039
2489.427,0.44890317
2490.323,0.44920805
2491.22,0.44932788
2492.118,0.44925871
2493.016,0.44923963
2493.915,0.44930606
2494.814,0.44931623
2495.715,0.44930487
2496.615,0.44936859
2497.517,0.44942192
2498.419,0.44944629
2499.322,0.44966542
2500.225,0.4501471
2501.129,0.45060157
2502.034,0.45083202
2502.939,0.45097772
2503.845,0.45112531
2504.752,0.45116791
2505.659,0.45117628
2506.567,0.45138967
2507.476,0.45175575
2508.385,0.45199858
2509.295,0.45211863
2510.206,0.45231579
2511.117,0.45252002
2512.029,0.45254092
2512.942,0.45251115
2513.855,0.45264134
2514.769,0.45277389
2515.683,0.45274093
2516.598,0.45280032
2517.514,0.45316077
2518.431,0.45353494
2519.348,0.45371024
2520.266,0.45396679
2521.184,0.45443743
2522.103,0.45474189
2523.023,0.45472995
2523.944,0.45479274
2524.865,0.45505177
2525.787,0.45515182
2526.709,0.45514827
2527.632,0.45551324
2528.556,0.45613672
2529.48,0.45642345
2530.406,0.45642405
2531.331,0.45668534
2532.258,0.45711882
2533.185,0.45725671
2534.113,0.45732341
2535.041,0.45772178
2535.971,0.45806572
2536.9,0.45794784
2537.831,0.45791285
2538.762,0.45842376
2539.694,0.45891379
2540.627,0.45885171
2541.56,0.45872365
2542.494,0.4590079
2543.428,0.45929018
2544.364,0.45932562
2545.3,0.4595999
2546.236,0.46010198
2547.174,0.46008921
2548.112,0.45961225
2549.05,0.45966201
2549.99,0.46034824
2550.93,0.46064794
2551.87,0.4603074
2552.812,0.46020744
2553.754,0.46050254
2554.697,0.4604257
2555.64,0.46006256
2556.585,0.46024144
2557.529,0.46087777
2558.475,0.4611603
2559.421,0.46128132
2560.368,0.46203043
2561.316,0.46278895
2562.264,0.46223471
2563.213,0.46113684
2564.163,0.46107157
2565.113,0.46163367
2566.065,0.46177498
2567.016,0.46198511
2567.969,0.46282035
2568.922,0.4632888
2569.876,0.46275202
2570.831,0.46265139
2571.786,0.46370409
2572.742,0.4642984
2573.699,0.46358236
2574.656,0.46321001
2575.615,0.46381168
2576.573,0.46381762
2577.533,0.46307548
2578.493,0.46334937
2579.454,0.46457053
2580.416,0.46493438
2581.378,0.46458319
2582.342,0.46521015
2583.305,0.46625877
2584.27,0.46597623
2585.235,0.46551536
2586.201,0.46645943
2587.168,0.46735702
2588.135,0.46659331
2589.103,0.4659339
2590.072,0.46696904
2591.042,0.46852583
2592.012,0.4696291
2592.983,0.4713171
2593.955,0.47311442
2594.927,0.47191191
2595.9,0.46853884
2596.874,0.4672472
2597.849,0.46803804
2598.824,0.46854656
2599.8,0.46855517
2600.777,0.46927377
2601.755,0.47028363
2602.733,0.47031235
2603.712,0.47007808
2604.692,0.47064308
2605.672,0.47083073
2606.653,0.46980617
2607.635,0.46916522
2608.618,0.46966717
2609.601,0.46998601
2610.585,0.46960929
2611.57,0.46970271
2612.556,0.47065002
2613.542,0.47152858
2614.529,0.47202919
2615.517,0.4726021
2616.505,0.47298581
2617.495,0.47267559
2618.485,0.47224151
2619.475,0.47222946
2620.467,0.47203361
2621.459,0.47139168
2622.452,0.47114162
2623.446,0.47174089
2624.44,0.47258435
2625.435,0.4730591
2626.431,0.47327529
2627.428,0.47358209
2628.426,0.47397782
2629.424,0.47425827
2630.423,0.47425599
2631.423,0.47389832
2632.423,0.47334931
2633.424,0.47289463
2634.426,0.4726961
2635.429,0.47272837
2636.432,0.47289687
2637.437,0.47311183
2638.442,0.47331743
2639.447,0.47343895
2640.454,0.47336337
2641.461,0.47314851
2642.469,0.47309176
2643.478,0.47333562
2644.488,0.47357235
2645.498,0.4735205
2646.509,0.47337099
2647.521,0.47340822
2648.534,0.47361996
2649.547,0.47395678
2650.561,0.47438317
2651.576,0.47457786
2652.592,0.47426565
2653.609,0.47379621
2654.626,0.47362681
2655.644,0.47360373
2656.663,0.47352046
2657.682,0.47356317
2658.703,0.47365447
2659.724,0.47331631
2660.746,0.47274752
2661.768,0.47285425
2662.792,0.47378923
2663.816,0.47471484
2664.841,0.47501002
2665.867,0.47473601
2666.894,0.47411913
2667.921,0.47348817
2668.949,0.4731612
2669.978,0.47239276
2671.008,0.46991108
2672.038,0.46639617
2673.07,0.46388319
2674.102,0.46274554
2675.135,0.46164692
2676.168,0.45937846
2677.203,0.45571864
2678.238,0.45084078
2679.274,0.44530042
2680.311,0.44021947
2681.349,0.43610693
2682.387,0.43230455
2683.426,0.4281165
2684.467,0.42372563
2685.507,0.41939873
2686.549,0.41482081
2687.591,0.40994383
2688.635,0.40535831
2689.679,0.4013852
2690.724,0.39785789
2691.769,0.39467217
2692.816,0.39151465
2693.863,0.38719776
2694.911,0.38062727
2695.96,0.37251392
2697.01,0.36442451
2698.06,0.35698526
2699.112,0.35018773
2700.164,0.3439434
2701.217,0.33770617
2702.27,0.33066006
2703.325,0.32283667
2704.38,0.31515384
2705.437,0.30839484
2706.494,0.30310628
2707.552,0.29994526
2708.61,0.29895051
2709.67,0.29846523
2710.73,0.2961778
2711.791,0.29179278
2712.853,0.28679844
2713.916,0.28170744
2714.98,0.27591345
2716.044,0.26908148
2717.109,0.26135624
2718.175,0.25291003
2719.242,0.24439742
2720.31,0.23762454
2721.379,0.23455331
2722.448,0.23539562
2723.518,0.23886705
2724.589,0.24342329
2725.661,0.24727165
2726.734,0.24892798
2727.808,0.24855634
2728.882,0.24731647
2729.958,0.24588692
2731.034,0.24459534
2732.111,0.2443188
2733.188,0.24592976
2734.267,0.24888043
2735.347,0.25155129
2736.427,0.25339494
2737.508,0.25517268
2738.59,0.257246
2739.673,0.25901115
2740.757,0.2598671
2741.841,0.25969991
2742.927,0.25866224
2744.013,0.25730886
2745.1,0.25646679
2746.188,0.25628413
2747.277,0.25609745
2748.367,0.25559752
2749.457,0.2552755
2750.549,0.25531073
2751.641,0.25525765
2752.734,0.2550803
2753.828,0.25516884
2754.923,0.25511503
2756.019,0.25399988
2757.115,0.25236955
2758.213,0.25149074
2759.311,0.25126622
2760.41,0.25094591
2761.51,0.25049536
2762.611,0.25021243
2763.713,0.24983067
2764.816,0.24909227
2765.919,0.24850728
2767.024,0.24836822
2768.129,0.24817228
2769.235,0.2475788
2770.342,0.24698528
2771.45,0.24660502
2772.559,0.24612528
2773.669,0.24560862
2774.779,0.2455082
2775.891,0.24572274
2777.003,0.24569482
2778.116,0.24533898
2779.23,0.24503307
2780.345,0.24477894
2781.461,0.24429268
2782.578,0.24376561
2783.696,0.24360241
2784.814,0.2436203
2785.934,0.24327915
2787.054,0.24252815
2788.175,0.24187114
2789.297,0.24163523
2790.42,0.24172378
2791.544,0.2419991
2792.669,0.24231042
2793.795,0.24236713
2794.922,0.24201396
2796.049,0.24151782
2797.178,0.24124114
2798.307,0.24118123
2799.437,0.24109447
2800.568,0.24085897
2801.7,0.24042975
2802.833,0.23969806
2803.967,0.23878708
2805.102,0.238232
2806.238,0.23832156
2807.374,0.23868429
2808.512,0.23887835
2809.65,0.23892016
2810.789,0.2390142
2811.93,0.23913155
2813.071,0.2391778
2814.213,0.23928721
2815.356,0.23959829
2816.5,0.23997621
2817.645,0.24024005
2818.791,0.24043201
2819.937,0.24065422
2821.085,0.24090943
2822.233,0.24123016
2823.383,0.24169372
2824.533,0.24222208
2825.685,0.24261924
2826.837,0.24280589
2827.99,0.24284925
2829.144,0.24280802
2830.299,0.24268382
2831.455,0.24247003
2832.612,0.24215066
2833.77,0.24169466
2834.929,0.24109029
2836.089,0.24035593
2837.25,0.23955715
2838.411,0.23881519
2839.574,0.23820637
2840.737,0.2376941
2841.902,0.23729146
2843.067,0.23714972
2844.234,0.23733338
2845.401,0.23768218
2846.569,0.23806184
2847.739,0.23853795
2848.909,0.23913873
2850.08,0.23972137
2851.252,0.24022448
2852.425,0.24072319
2853.599,0.24113345
2854.774,0.24128321
2855.95,0.24132801
2857.127,0.24162518
2858.305,0.24218331
2859.484,0.24271757
2860.664,0.24313626
2861.844,0.24350644
2863.026,0.24368989
2864.209,0.24350239
2865.392,0.2430834
2866.577,0.24269769
2867.763,0.24235418
2868.949,0.2419512
2870.137,0.24155729
2871.325,0.24124418
2872.515,0.24091745
2873.705,0.24055476
2874.897,0.24033314
2876.089,0.2403028
2877.283,0.24024004
2878.477,0.23999598
2879.673,0.2397166
2880.869,0.23954769
2882.066,0.23939858
2883.265,0.23914512
2884.464,0.23884814
2885.664,0.23861252
2886.866,0.23843941
2888.068,0.23832667
2889.271,0.23831873
2890.476,0.23831844
2891.681,0.23805372
2892.887,0.23741293
2894.095,0.23664574
2895.303,0.23604928
2896.512,0.23562905
2897.723,0.23523428
2898.934,0.23483445
2900.146,0.23445882
2901.36,0.23406754
2902.574,0.23366814
2903.789,0.23338828
2905.006,0.23325145
2906.223,0.23310417
2907.441,0.23288311
2908.661,0.23271685
2909.881,0.23265346
2911.103,0.23255736
2912.325,0.2323937
2913.549,0.23234541
2914.773,0.23251
2915.999,0.23272213
2917.225,0.2327678
2918.453,0.23258772
2919.681,0.23220987
2920.911,0.23170151
2922.142,0.23122224
2923.373,0.23092181
2924.606,0.23075321
2925.84,0.23056476
2927.075,0.23034129
2928.31,0.2301799
2929.547,0.23007975
2930.785,0.22997647
2932.024,0.2299437
2933.264,0.23014815
2934.505,0.23058784
2935.747,0.23106126
2936.99,0.23139595
2938.234,0.23156431
2939.479,0.23158774
2940.726,0.23152148
2941.973,0.23154435
2943.221,0.23189227
2944.471,0.23263903
2945.721,0.2336038
2946.973,0.23446385
2948.225,0.23492609
2949.479,0.2349111
2950.733,0.23467724
2951.989,0.23466204
2953.246,0.23507795
2954.504,0.23571741
2955.763,0.23620939
2957.023,0.23636986
2958.284,0.23626936
2959.546,0.23610778
2960.809,0.23608111
2962.073,0.23626622
2963.339,0.2365919
2964.605,0.23695835
2965.873,0.2373374
2967.141,0.23771646
2968.411,0.23805524
2969.681,0.23837876
2970.953,0.23881401
2972.226,0.23945956
2973.5,0.24027828
2974.775,0.24111781
2976.051,0.24175591
2977.328,0.24199059
2978.607,0.24183346
2979.886,0.24157398
2981.167,0.24151922
2982.448,0.24173062
2983.731,0.24208989
2985.015,0.24249087
2986.3,0.24287699
2987.586,0.24324126
2988.873,0.24368256
2990.161,0.24429426
2991.45,0.2449328
2992.74,0.24528979
2994.032,0.24527841
2995.324,0.24516155
2996.618,0.24523143
2997.913,0.24554666
2999.209,0.24603399
3000.506,0.24662833
3001.804,0.24721181
3003.103,0.2476101
3004.404,0.24776876
3005.705,0.24780572
3007.008,0.24783449
3008.312,0.24788401
3009.616,0.24802039
3010.922,0.24834747
3012.23,0.24883356
3013.538,0.24931795
3014.847,0.24972375
3016.158,0.25007602
3017.469,0.25032083
3018.782,0.2503814
3020.096,0.25038777
3021.411,0.25056919
3022.727,0.25092561
3024.044,0.25128984
3025.363,0.25166852
3026.683,0.2522334
3028.003,0.2530262
3029.325,0.25394546
3030.648,0.2549034
3031.972,0.25571828
3033.298,0.25604207
3034.624,0.25572943
3035.952,0.25513118
3037.281,0.25474748
3038.611,0.25476434
3039.942,0.2551299
3041.274,0.25579536
3042.607,0.25661794
3043.942,0.25728009
3045.278,0.2575682
3046.615,0.25756574
3047.953,0.2574515
3049.292,0.25731425
3050.632,0.25723737
3051.974,0.25731944
3053.317,0.2575219
3054.661,0.25769115
3056.006,0.25778423
3057.352,0.25791144
3058.7,0.25816208
3060.048,0.25854855
3061.398,0.2591023
3062.749,0.2598354
3064.101,0.26058586
3065.455,0.26105378
3066.809,0.26107693
3068.165,0.26080592
3069.522,0.26055029
3070.88,0.26050193
3072.239,0.26067094
3073.6,0.2610078
3074.962,0.26145248
3076.325,0.26190091
3077.689,0.26227678
3079.054,0.26261995
3080.421,0.26298962
3081.788,0.26334125
3083.157,0.26363491
3084.527,0.26394798
3085.899,0.26431778
3087.271,0.26460982
3088.645,0.26472346
3090.02,0.2647751
3091.396,0.26490761
3092.774,0.26508305
3094.153,0.26524018
3095.532,0.26547181
3096.914,0.26588101
3098.296,0.26642871
3099.679,0.2670242
3101.064,0.26757592
3102.45,0.26791087
3103.837,0.26789322
3105.226,0.26767215
3106.616,0.26756738
3108.007,0.26768464
3109.399,0.26789064
3110.792,0.26813337
3112.187,0.26850525
3113.583,0.26900726
3114.98,0.269511
3116.378,0.26994721
3117.778,0.27033668
3119.179,0.2706714
3120.581,0.2709372
3121.985,0.27119369
3123.389,0.271488
3124.795,0.27176859
3126.202,0.27200299
3127.611,0.27227938
3129.02,0.27268169
3130.431,0.27316017
3131.844,0.27361012
3133.257,0.27399747
3134.672,0.27434209
3136.088,0.27465815
3137.505,0.27496863
3138.924,0.27531211
3140.344,0.27570054
3141.765,0.27610837
3143.187,0.27651155
3144.611,0.27691227
3146.036,0.27733452
3147.462,0.27780712
3148.89,0.27832479
3150.319,0.27883844
3151.749,0.27929953
3153.18,0.27970119
3154.613,0.28006366
3156.047,0.28042454
3157.482,0.28084007
3158.919,0.2813387
3160.357,0.28187276
3161.796,0.28238559
3163.236,0.28290363
3164.678,0.28348027
3166.121,0.28408786
3167.566,0.284656
3169.011,0.28516641
3170.458,0.28563045
3171.907,0.28604496
3173.356,0.28646193
3174.807,0.28701655
3176.26,0.28780633
3177.713,0.28879353
3179.168,0.2898452
3180.624,0.29077406
3182.082,0.29136443
3183.541,0.29152217
3185.001,0.29142385
3186.463,0.29139128
3187.926,0.29162106
3189.39,0.29213329
3190.856,0.29289382
3192.323,0.29381658
3193.791,0.29469896
3195.26,0.2953282
3196.731,0.29565886
3198.204,0.29581172
3199.677,0.29595389
3201.152,0.29623324
3202.629,0.29671946
3204.106,0.29732707
3205.585,0.2978685
3207.066,0.29826194
3208.548,0.2986492
3210.031,0.29927315
3211.515,0.30027834
3213.001,0.30161138
3214.488,0.30302907
3215.977,0.30418053
3217.467,0.30477781
3218.958,0.3047829
3220.451,0.30446028
3221.945,0.30422125
3223.441,0.30437123
3224.938,0.30491536
3226.436,0.30556454
3227.936,0.30598102
3229.437,0.30609977
3230.939,0.30618593
3232.443,0.30653977
3233.948,0.30718536
3235.455,0.30789752
3236.963,0.30846089
3238.472,0.30883976
3239.983,0.30916455
3241.495,0.309627
3243.008,0.31031775
3244.523,0.31111792
3246.04,0.31182929
3247.558,0.31243414
3249.077,0.313099
3250.598,0.31392208
3252.12,0.31483283
3253.643,0.3157462
3255.168,0.31660808
3256.694,0.31729131
3258.222,0.31764347
3259.751,0.31766347
3261.282,0.31749696
3262.814,0.31731159
3264.347,0.31729771
3265.882,0.31764896
3267.418,0.31835568
3268.956,0.31914268
3270.495,0.31974569
3272.036,0.32012337
3273.578,0.32033465
3275.122,0.32042527
3276.667,0.32051587
3278.213,0.32077165
3279.761,0.32119849
3281.31,0.32167321
3282.861,0.32217943
3284.413,0.32279071
3285.967,0.32344411
3287.522,0.32398236
3289.079,0.32439835
3290.637,0.32483527
3292.196,0.32538114
3293.757,0.32601425
3295.32,0.32665077
3296.884,0.32711387
3298.449,0.3272021
3300.016,0.32694707
3301.585,0.32667368
3303.155,0.32667293
3304.726,0.32692344
3306.299,0.32720754
3307.873,0.32736808
3309.449,0.32740697
3311.026,0.32745667
3312.605,0.3276957
3314.185,0.32820297
3315.767,0.32888214
3317.351,0.32958412
3318.936,0.3302754
3320.522,0.33103901
3322.11,0.33196326
3323.699,0.33307556
3325.29,0.33432368
3326.882,0.3355624
3328.476,0.33658431
3330.072,0.33720039
3331.669,0.33733875
3333.267,0.33713096
3334.867,0.33688962
3336.469,0.33689473
3338.072,0.33718213
3339.676,0.33760392
3341.282,0.3380488
3342.89,0.33848327
3344.499,0.33885614
3346.11,0.33913156
3347.722,0.33937733
3349.336,0.3396604
3350.952,0.33990577
3352.569,0.33999545
3354.187,0.33993002
3355.807,0.33978275
3357.429,0.33962636
3359.052,0.33959552
3360.677,0.33983939
3362.303,0.34028965
3363.931,0.34065974
3365.56,0.34076102
3367.191,0.34064163
3368.824,0.34038111
3370.458,0.33999058
3372.093,0.33953683
3373.731,0.33912111
3375.37,0.33873651
3377.01,0.33836863
3378.652,0.33818237
3380.296,0.33836144
3381.941,0.33884629
3383.588,0.33945979
3385.236,0.34016733
3386.886,0.34099352
3388.538,0.34183836
3390.191,0.34260384
3391.846,0.34335089
3393.502,0.34412798
3395.16,0.34479353
3396.82,0.34517778
3398.481,0.34529003
3400.144,0.34525349
3401.809,0.34516101
3403.475,0.34506537
3405.143,0.34495101
3406.812,0.34467837
3408.483,0.34410337
3410.156,0.34330859
3411.83,0.34257417
3413.506,0.34211146
3415.183,0.34194528
3416.862,0.34207119
3418.543,0.34256935
3420.226,0.34350736
3421.91,0.34481109
3423.596,0.34629379
3425.283,0.34776992
3426.972,0.34913755
3428.663,0.3504117
3430.355,0.3517081
3432.049,0.35313736
3433.745,0.35470575
3435.442,0.35634106
3437.141,0.35800478
3438.842,0.3596939
3440.545,0.36131734
3442.249,0.36265349
3443.954,0.36350306
3445.662,0.36387133
3447.371,0.36398778
3449.082,0.36415531
3450.794,0.3645719
3452.509,0.36524084
3454.224,0.3660275
3455.942,0.36679693
3457.661,0.36751337
3459.382,0.36822012
3461.105,0.36893767
3462.829,0.36958482
3464.556,0.3700246
3466.283,0.37021233
3468.013,0.37025979
3469.744,0.37031087
3471.477,0.37040218
3473.212,0.37050736
3474.948,0.37063372
3476.686,0.37078125
3478.426,0.37089342
3480.168,0.3709452
3481.911,0.37099627
3483.656,0.37111342
3485.403,0.37136649
3487.152,0.37188513
3488.902,0.37269268
3490.654,0.37347893
3492.408,0.37380869
3494.164,0.3735977
3495.921,0.37314959
3497.68,0.37276136
3499.441,0.3725639
3501.204,0.37267296
3502.968,0.37317326
3504.734,0.37398604
3506.502,0.37499558
3508.272,0.37622923
3510.043,0.37771074
3511.817,0.37930383
3513.592,0.38088717
3515.368,0.38247928
3517.147,0.3840575
3518.927,0.38549444
3520.71,0.38677421
3522.494,0.38799343
3524.28,0.38910372
3526.067,0.38997054
3527.857,0.39072863
3529.648,0.3917243
3531.441,0.39304174
3533.236,0.39436846
3535.032,0.39537114
3536.831,0.39596674
3538.631,0.39626258
3540.433,0.3964587
3542.237,0.39677603
3544.043,0.39728515
3545.851,0.39784385
3547.66,0.39830969
3549.471,0.3987234
3551.284,0.39918998
3553.099,0.3997186
3554.916,0.40027217
3556.735,0.40084844
3558.555,0.4014142
3560.378,0.4018824
3562.202,0.40223896
3564.028,0.40260284
3565.856,0.40309557
3567.686,0.40371794
3569.518,0.40437003
3571.351,0.40493333
3573.187,0.40532357
3575.024,0.40553201
3576.863,0.40565509
3578.704,0.40585709
3580.547,0.40626611
3582.392,0.40688162
3584.239,0.4075553
3586.088,0.40809339
3587.938,0.40841635
3589.791,0.40863467
3591.645,0.40893914
3593.501,0.40942744
3595.359,0.41002194
3597.22,0.41052599
3599.082,0.4107766
3600.946,0.41080611
3602.811,0.41083233
3604.679,0.41103939
3606.549,0.41141911
3608.421,0.41188863
3610.294,0.4124481
3612.17,0.413104
3614.047,0.41374299
3615.926,0.41421872
3617.808,0.41449384
3619.691,0.41461844
3621.576,0.41466996
3623.463,0.41476864
3625.353,0.41500712
3627.244,0.41533242
3629.137,0.41563135
3631.032,0.41591832
3632.929,0.41627914
3634.828,0.41668739
3636.729,0.41705337
3638.632,0.41738403
3640.537,0.41772727
3642.444,0.41806155
3644.353,0.41838914
3646.263,0.41880157
3648.176,0.41931758
3650.091,0.41980408
3652.008,0.42014029
3653.927,0.42032471
3655.848,0.42039687
3657.771,0.42042643
3659.696,0.42056182
3661.623,0.42090903
3663.552,0.42138058
3665.483,0.42180271
3667.416,0.42211049
3669.351,0.42234376
3671.288,0.42255395
3673.227,0.42281666
3675.168,0.42322062
3677.111,0.42377649
3679.057,0.42441076
3681.004,0.42503912
3682.953,0.42554959
3684.905,0.42579049
3686.858,0.42571583
3688.814,0.42550753
3690.771,0.42542698
3692.731,0.42559711
3694.693,0.42597831
3696.656,0.42647004
3698.622,0.42696851
3700.59,0.42740272
3702.56,0.42776536
3704.532,0.42808805
3706.507,0.42838081
3708.483,0.428637
3710.461,0.42886922
3712.442,0.4290989
3714.425,0.42931976
3716.409,0.42951766
3718.396,0.42971595
3720.385,0.42997006
3722.376,0.43029509
3724.37,0.43064921
3726.365,0.43101434
3728.362,0.431437
3730.362,0.4319287
3732.364,0.43240993
3734.368,0.43282499
3736.374,0.43322536
3738.382,0.43365294
3740.392,0.43407644
3742.405,0.43450708
3744.419,0.43500736
3746.436,0.4355213
3748.455,0.43589534
3750.476,0.43610435
3752.499,0.43624019
3754.525,0.43631085
3756.553,0.43631473
3758.582,0.43641349
3760.614,0.43674828
3762.649,0.43719612
3764.685,0.43757508
3766.724,0.43790212
3768.764,0.4382255
3770.807,0.43846199
3772.853,0.43861059
3774.9,0.43880935
3776.95,0.43904932
3779.001,0.43916671
3781.056,0.43920153
3783.112,0.43937108
3785.17,0.43968312
3787.231,0.43995366
3789.294,0.4401534
3791.359,0.44037402
3793.427,0.44058373
3795.496,0.44073403
3797.568,0.44093582
3799.643,0.44124606
3801.719,0.44152151
3803.798,0.44167325
3805.879,0.44181123
3807.962,0.44199107
3810.048,0.44212304
3812.135,0.44221676
3814.225,0.44243665
3816.318,0.44286101
3818.412,0.44341169
3820.509,0.44398901
3822.609,0.44449491
3824.71,0.44481335
3826.814,0.44493984
3828.92,0.44503697
3831.029,0.44524776
3833.139,0.44556418
3835.252,0.44592659
3837.368,0.44631863
3839.486,0.44673876
3841.606,0.44717974
3843.728,0.44763097
3845.853,0.44804663
3847.98,0.44836077
3850.109,0.4485665
3852.241,0.44872362
3854.375,0.44889205
3856.512,0.44911786
3858.65,0.44942692
3860.792,0.44976458
3862.935,0.45002095
3865.081,0.45017736
3867.229,0.45032877
3869.38,0.45053304
3871.533,0.45075826
3873.689,0.45099406
3875.846,0.4512716
3878.007,0.45157468
3880.169,0.45186343
3882.334,0.45216414
3884.502,0.45251005
3886.672,0.45285644
3888.844,0.45316524
3891.019,0.45349153
3893.196,0.45385658
3895.375,0.4541554
3897.557,0.45431155
3899.742,0.45441301
3901.929,0.45455858
3904.118,0.4547183
3906.31,0.45485595
3908.504,0.45504075
3910.7,0.45530963
3912.9,0.45558013
3915.101,0.45580354
3917.305,0.45604544
3919.512,0.45632303
3921.721,0.45654458
3923.932,0.45668847
3926.146,0.45684588
3928.363,0.45703275
3930.581,0.45716957
3932.803,0.45726223
3935.027,0.45740507
3937.253,0.45760329
3939.482,0.45780901
3941.714,0.45806146
3943.948,0.45839756
3946.184,0.45871566
3948.423,0.45893324
3950.665,0.45915072
3952.909,0.45948234
3955.156,0.4598754
3957.405,0.46025263
3959.657,0.46065691
3961.911,0.46112671
3964.168,0.46160823
3966.427,0.4620781
3968.689,0.46258054
3970.954,0.46311332
3973.221,0.46362971
3975.491,0.46414356
3977.763,0.46468531
3980.038,0.46519838
3982.315,0.46560544
3984.595,0.46591737
3986.878,0.4661887
3989.163,0.46644931
3991.451,0.46670936
3993.742,0.46696498
3996.035,0.46719141
3998.33,0.46740036
4000.629,0.46765597
4002.93,0.46797328
4005.233,0.46828744
4007.54,0.46854905
4009.849,0.46876031
4012.16,0.46892019
4014.475,0.46905481
4016.791,0.46925265
4019.111,0.46955535
4021.433,0.46989007
4023.758,0.47018583
4026.086,0.47045484
4028.416,0.47069861
4030.749,0.4708786
4033.085,0.47102084
4035.423,0.47120184
4037.764,0.47140674
4040.108,0.47157042
4042.454,0.47174253
4044.804,0.47204264
4047.155,0.47247226
4049.51,0.47292754
4051.867,0.47335173
4054.228,0.47374234
4056.59,0.47406186
4058.956,0.47428761
4061.324,0.47450769
4063.695,0.474839
4066.069,0.47528039
4068.446,0.47575055
4070.825,0.47622688
4073.207,0.47673178
4075.592,0.47721907
4077.98,0.47761809
4080.371,0.4779626
4082.764,0.47833802
4085.16,0.47872475
4087.559,0.47905519
4089.961,0.47938473
4092.365,0.47981209
4094.773,0.48029079
4097.183,0.48072299
4099.596,0.48115341
4102.012,0.48164023
4104.43,0.48208713
4106.852,0.48242944
4109.276,0.48279547
4111.703,0.48326415
4114.133,0.48371941
4116.566,0.48412164
4119.002,0.48461631
4121.441,0.48521199
4123.882,0.48572527
4126.327,0.48614056
4128.774,0.4866321
4131.224,0.48720089
4133.677,0.4877001
4136.133,0.48817008
4138.592,0.48874393
4141.054,0.4893532
4143.519,0.48988719
4145.987,0.49043273
4148.457,0.49104698
4150.931,0.49159759
4153.407,0.49205113
4155.887,0.49255852
4158.369,0.49312853
4160.854,0.4936067
4163.343,0.49401543
4165.834,0.4944966
4168.328,0.49499894
4170.826,0.49541745
4173.326,0.49586531
4175.829,0.49645386
4178.335,0.49707218
4180.844,0.4976638
4183.356,0.49836557
4185.872,0.49919856
4188.39,0.50003446
4190.911,0.50095082
4193.435,0.50219471
4195.963,0.50385184
4198.493,0.50596063
4201.026,0.5087643
4203.563,0.51241503
4206.102,0.516675
4208.645,0.52130295
4211.19,0.52635114
4213.739,0.53171169
4216.291,0.53688895
4218.846,0.54163046
4221.404,0.54614846
4223.965,0.55044726
4226.529,0.55423741
4229.096,0.55761641
4231.666,0.560804
4234.24,0.56336613
4236.816,0.56476259
4239.396,0.56528126
4241.979,0.56529586
4244.565,0.56426422
4247.154,0.56136392
4249.746,0.55663598
4252.341,0.55110306
4254.94,0.54642136
4257.542,0.54435905
4260.146,0.54591563
4262.754,0.5505716
4265.366,0.55640209
4267.98,0.56127201
4270.598,0.56415498
4273.219,0.56525839
4275.843,0.56535881
4278.47,0.56531855
4281.1,0.56564804
4283.734,0.56631412
4286.371,0.56710886
4289.011,0.56792695
4291.655,0.56851006
4294.301,0.56850617
4296.951,0.56803064
4299.604,0.56767182
4302.261,0.56771544
4304.92,0.56784114
4307.583,0.56763435
4310.25,0.5669842
4312.919,0.56593804
4315.592,0.5646415
4318.268,0.56343243
4320.948,0.56261112
4323.631,0.56210677
4326.317,0.56164225
4329.006,0.56110896
4331.699,0.56053058
4334.395,0.55985777
4337.095,0.55911469
4339.797,0.55855793
4342.504,0.55839415
4345.213,0.55851687
4347.926,0.55877007
4350.642,0.55917754
4353.362,0.55969418
4356.085,0.56009853
4358.811,0.56038754
4361.541,0.56086488
4364.275,0.56164416
4367.011,0.56249705
4369.751,0.56332123
4372.495,0.56422972
4375.242,0.56515806
4377.992,0.56596803
4380.746,0.56686381
4383.504,0.56809237
4386.264,0.56942517
4389.029,0.57057112
4391.796,0.57175262
4394.567,0.57320614
4397.342,0.57460482
4400.12,0.57567585
4402.902,0.57676462
4405.687,0.57814056
4408.476,0.57946289
4411.268,0.58052307
4414.064,0.58166096
4416.863,0.58299978
4419.666,0.58418949
4422.472,0.58519449
4425.282,0.5863486
4428.096,0.58752615
4430.913,0.58832662
4433.734,0.58900544
4436.558,0.59010771
4439.386,0.59142486
4442.217,0.59237065
4445.052,0.59302846
4447.891,0.59379599
4450.733,0.59456024
4453.579,0.59513711
4456.428,0.59587795
4459.281,0.59701292
4462.138,0.59810151
4464.998,0.59881912
4467.863,0.59952778
4470.73,0.60051581
4473.602,0.60148147
4476.477,0.60217275
4479.355,0.60279562
4482.238,0.60348046
4485.124,0.60406256
4488.014,0.6045341
4490.908,0.60512378
4493.805,0.60582831
4496.706,0.6063785
4499.611,0.60671194
4502.519,0.60706302
4505.431,0.60756326
4508.347,0.60805836
4511.267,0.60839674
4514.191,0.60864462
4517.118,0.60892364
4520.049,0.60917615
4522.984,0.6093122
4525.923,0.60945873
4528.865,0.609764
4531.812,0.61004561
4534.762,0.61003387
4537.716,0.60987978
4540.674,0.60991119
4543.635,0.61005464
4546.601,0.61003974
4549.57,0.61000435
4552.543,0.61022447
4555.521,0.61052854
4558.502,0.61063935
4561.487,0.6107452
4564.475,0.61100738
4567.468,0.61100282
4570.465,0.61043884
4573.465,0.60991138
4576.47,0.61000466
4579.478,0.61036083
4582.491,0.61050136
4585.507,0.61061713
4588.527,0.61082258
4591.551,0.61070681
4594.58,0.61027287
4597.612,0.61022483
4600.648,0.61073749
4603.688,0.61106928
4606.732,0.61082496
4609.781,0.61045961
4612.833,0.61020489
4615.889,0.6097747
4618.949,0.60931671
4622.014,0.6093937
4625.082,0.60980118
4628.155,0.6097853
4631.231,0.60944902
4634.312,0.60959616
4637.397,0.61017391
4640.485,0.61045606
4643.578,0.61050362
4646.675,0.61087636
4649.777,0.61139746
4652.882,0.61152067
4655.991,0.61157302
4659.105,0.61225753
4662.223,0.61333441
4665.345,0.61421553
4668.471,0.61520827
4671.601,0.61676258
4674.735,0.61839371
4677.874,0.61954079
4681.017,0.62048687
4684.164,0.62135452
4687.315,0.62155053
4690.471,0.62115737
4693.63,0.62138465
4696.794,0.62276053
4699.962,0.62440482
4703.135,0.62565113
4706.312,0.62683517
4709.493,0.62804309
4712.678,0.62876431
4715.868,0.62908892
4719.062,0.62971182
4722.26,0.6306589
4725.463,0.63138929
4728.669,0.63194817
4731.881,0.63272025
4735.096,0.63348818
4738.316,0.63384857
4741.541,0.63405452
4744.769,0.6345244
4748.002,0.6351659
4751.24,0.6358104
4754.482,0.63662564
4757.728,0.63760917
4760.979,0.63839258
4764.234,0.63884891
4767.494,0.63929242
4770.758,0.63991756
4774.026,0.64062217
4777.299,0.64134587
4780.577,0.64213428
4783.859,0.64293494
4787.145,0.64364064
4790.436,0.64420474
4793.732,0.64462231
4797.032,0.64495786
4800.336,0.64538525
4803.645,0.64602273
4806.959,0.64683264
4810.277,0.64781514
4813.6,0.64903745
4816.927,0.65031052
4820.259,0.65122276
4823.596,0.65165777
4826.937,0.65191253
4830.283,0.6522632
4833.633,0.65282395
4836.988,0.65371115
4840.348,0.65488396
4843.712,0.65602571
4847.081,0.65702343
4850.455,0.65821094
4853.833,0.65973659
4857.216,0.66115747
4860.604,0.66209997
4863.996,0.66285129
4867.393,0.6638182
4870.795,0.6648575
4874.202,0.66564466
4877.613,0.66628982
4881.03,0.66707066
4884.451,0.66798618
4887.876,0.66902829
4891.307,0.67038789
4894.742,0.67199643
4898.182,0.67336413
4901.627,0.67430098
4905.077,0.67526623
4908.532,0.6764588
4911.991,0.67735166
4915.456,0.67770693
4918.925,0.67813591
4922.399,0.67909137
4925.878,0.6802988
4929.362,0.6815389
4932.851,0.68291652
4936.345,0.68414199
4939.844,0.68475606
4943.347,0.68520229
4946.856,0.6863828
4950.37,0.68817601
4953.888,0.68961992
4957.412,0.69038108
4960.941,0.69086227
4964.474,0.69123389
4968.013,0.69151261
4971.556,0.69210911
4975.105,0.69322221
4978.659,0.69417286
4982.218,0.69438386
4985.782,0.69440704
4989.351,0.69494596
4992.925,0.69574836
4996.504,0.69637053
5000.088,0.69703489
5003.678,0.69796269
5007.272,0.69892444
5010.872,0.69995496
5014.477,0.70141182
5018.087,0.70295399
5021.703,0.7036528
5025.323,0.70336671
5028.949,0.70290611
5032.58,0.70276925
5036.216,0.70281024
5039.857,0.703006
5043.504,0.70351889
5047.156,0.70414434
5050.813,0.70454216
5054.475,0.70482336
5058.143,0.70524863
5061.816,0.70568904
5065.495,0.70598028
5069.179,0.70643152
5072.868,0.70742785
5076.562,0.70881265
5080.262,0.71005866
5083.967,0.71081092
5087.678,0.71103893
5091.394,0.71092349
5095.115,0.710798
5098.842,0.71099266
5102.574,0.71157752
5106.312,0.71233423
5110.055,0.71299827
5113.804,0.71347732
5117.558,0.71386339
5121.318,0.71429772
5125.083,0.71485807
5128.854,0.71565311
5132.63,0.71696364
5136.412,0.71902108
5140.199,0.72156275
5143.992,0.72384785
5147.791,0.72522637
5151.595,0.72557063
5155.405,0.72525276
5159.22,0.72497575
5163.041,0.72544987
5166.868,0.7268057
5170.7,0.72845101
5174.538,0.72983669
5178.382,0.73108402
5182.231,0.73256736
5186.086,0.73438157
5189.947,0.73656482
5193.814,0.73921764
5197.686,0.74205462
5201.564,0.74451997
5205.448,0.7465529
5209.338,0.74837984
5213.233,0.74953965
5217.134,0.74935046
5221.041,0.74841588
5224.954,0.74826919
5228.873,0.7494803
5232.798,0.75128489
5236.728,0.75289764
5240.665,0.75411116
5244.607,0.75482643
5248.555,0.75511187
5252.51,0.75552771
5256.47,0.75648122
5260.436,0.75768542
5264.408,0.75889822
5268.386,0.76042053
5272.37,0.76228576
5276.36,0.76396939
5280.356,0.76542476
5284.358,0.76723899
5288.367,0.76929038
5292.381,0.77052168
5296.401,0.77053617
5300.428,0.77016783
5304.46,0.77013471
5308.499,0.77039287
5312.544,0.7709136
5316.595,0.77187108
5320.652,0.77298354
5324.715,0.77373818
5328.785,0.77434227
5332.86,0.77564529
5336.942,0.77820657
5341.031,0.78192286
5345.125,0.78604546
5349.226,0.78904109
5353.333,0.78935536
5357.446,0.78716892
5361.566,0.78453436
5365.692,0.78321124
5369.824,0.78325463
5373.962,0.78381486
5378.107,0.78440338
5382.259,0.78494287
5386.417,0.78535079
5390.581,0.78568257
5394.751,0.78625482
5398.928,0.7872722
5403.112,0.7888285
5407.302,0.79135055
5411.498,0.79523721
5415.701,0.79966125
5419.911,0.80250428
5424.127,0.80231411
5428.349,0.79989257
5432.579,0.79720558
5436.814,0.79559126
5441.057,0.79550052
5445.305,0.79688968
5449.561,0.79941072
5453.823,0.80283766
5458.092,0.80726179
5462.368,0.81218963
5466.65,0.81602515
5470.939,0.81779706
5475.234,0.81862232
5479.537,0.81976951
5483.846,0.82065391
5488.162,0.82047595
5492.484,0.8201375
5496.814,0.82078369
5501.15,0.82264269
5505.493,0.82655446
5509.843,0.8338813
5514.2,0.84385708
5518.564,0.85385374
5522.934,0.86259044
5527.312,0.87039138
5531.696,0.87744896
5536.087,0.88524362
5540.486,0.89539839
5544.891,0.90054599
5549.303,0.88203044
5553.723,0.8276461
5558.149,0.76818814
5562.582,0.70778827
5567.023,0.67096986
5571.47,0.65356513
5575.925,0.64034325
5580.387,0.65072513
5584.856,0.67752354
5589.332,0.70019898
5593.815,0.71329818
5598.305,0.72378987
5602.803,0.73251754
5607.307,0.73653992
5611.819,0.74043921
5616.339,0.74809414
5620.865,0.75529632
5625.399,0.75828408
5629.94,0.76136679
5634.489,0.76735322
5639.044,0.77167077
5643.607,0.77121164
5648.178,0.77073144
5652.756,0.77257783
5657.341,0.77330815
5661.934,0.77255934
5666.534,0.77465524
5671.142,0.77950177
5675.757,0.78212343
5680.379,0.78199786
5685.01,0.78334018
5689.647,0.78600683
5694.293,0.78656481
5698.945,0.78669002
5703.606,0.79052731
5708.274,0.79623153
5712.949,0.79853454
5717.633,0.7982855
5722.324,0.79949824
5727.022,0.80127927
5731.729,0.80109221
5736.443,0.80131174
5741.165,0.80430016
5745.894,0.8072176
5750.631,0.80797254
5755.377,0.81048335
5760.13,0.81674476
5764.89,0.82132342
5769.659,0.82030968
5774.436,0.81811333
5779.22,0.8174744
5784.012,0.81542526
5788.813,0.81189164
5793.621,0.8115151
5798.437,0.81504165
5803.262,0.81847543
5808.094,0.82169544
5812.934,0.82811916
5817.782,0.83551177
5822.639,0.83729481
5827.503,0.8344393
5832.376,0.83258141
5837.257,0.83158759
5842.146,0.829329
5847.043,0.82907933
5851.948,0.83340534
5856.862,0.8382131
5861.783,0.83978622
5866.714,0.84201436
5871.652,0.84763042
5876.598,0.85220307
5881.553,0.85248551
5886.517,0.85230358
5891.488,0.85251723
5896.468,0.84915285
5901.457,0.84358794
5906.454,0.84174676
5911.459,0.84364696
5916.473,0.84529136
5921.495,0.84746354
5926.526,0.85328367
5931.565,0.85917843
5936.613,0.85875107
5941.67,0.85449269
5946.735,0.85230424
5951.809,0.8517645
5956.891,0.85100975
5961.982,0.85202962
5967.082,0.85521688
5972.19,0.85668335
5977.307,0.855419
5982.433,0.85523417
5987.568,0.85640459
5992.711,0.85528567
5997.864,0.85281738
6003.025,0.85320875
6008.195,0.85545027
6013.374,0.85504773
6018.562,0.85274807
6023.759,0.85291561
6028.964,0.85618394
6034.179,0.86050209
6039.403,0.86551117
6044.636,0.86997327
6049.878,0.87029029
6055.129,0.86731059
6060.389,0.8664696
6065.658,0.86848191
6070.936,0.86877262
6076.224,0.86551281
6081.52,0.86225515
6086.826,0.86142279
6092.141,0.8625155
6097.466,0.86562533
6102.8,0.87063143
6108.143,0.87408889
6113.495,0.87282084
6118.857,0.8692419
6124.228,0.86721904
6129.609,0.86701146
6134.999,0.86770633
6140.398,0.86970582
6145.807,0.87254616
6151.226,0.87407584
6156.654,0.8738582
6162.091,0.87392472
6167.539,0.87521816
6172.996,0.87670226
6178.462,0.87773824
6183.938,0.8783646
6189.424,0.87806799
6194.92,0.87690031
6200.425,0.87641062
6205.94,0.87738273
6211.465,0.87858847
6217.0,0.87898841
6222.544,0.87941603
6228.099,0.88053336
6233.663,0.88142803
6239.237,0.88146846
6244.822,0.88153509
6250.416,0.88221959
6256.02,0.88298857
6261.635,0.8836897
6267.259,0.88492249
6272.893,0.88634327
6278.538,0.88685528
6284.193,0.88661291
6289.858,0.88682345
6295.533,0.88757186
6301.218,0.88809113
6306.914,0.88860647
6312.619,0.88984363
6318.336,0.89147731
6324.062,0.89311443
6329.799,0.89532193
6335.546,0.89783332
6341.304,0.89875622
6347.072,0.89803866
6352.851,0.89838788
6358.64,0.90079197
6364.44,0.90292034
6370.25,0.90301707
6376.071,0.90212056
6381.903,0.90144315
6387.745,0.90144244
6393.598,0.90354603
6399.461,0.90870801
6405.335,0.91404292
6411.221,0.91516684
6417.116,0.91278708
6423.023,0.91041639
6428.941,0.90851112
6434.869,0.90670464
6440.809,0.90636535
6446.759,0.9076343
6452.72,0.90852548
6458.693,0.90901523
6464.676,0.91152764
6470.671,0.91601416
6476.676,0.9192754
6482.693,0.92000849
6488.721,0.91963418
6494.76,0.91822776
6500.81,0.91569628
6506.872,0.91449915
6512.945,0.91579007
6519.029,0.91695691
6525.124,0.91622878
6531.231,0.91586287
6537.35,0.91736403
6543.48,0.91890914
6549.621,0.91965516
6555.774,0.92135226
6561.938,0.92390305
6568.114,0.92490554
6574.302,0.92460436
6580.501,0.92504995
6586.712,0.92541374
6592.934,0.92405475
6599.169,0.92279978
6605.415,0.92403109
6611.673,0.9268459
6617.943,0.9293887
6624.224,0.93162422
6630.518,0.93275279
6636.823,0.9306192
6643.141,0.92663557
6649.47,0.92494346
6655.812,0.92624228
6662.166,0.927908
6668.532,0.92855602
6674.91,0.92894352
6681.3,0.92910931
6687.702,0.92874043
6694.117,0.92923227
6700.544,0.93146564
6706.983,0.93338217
6713.435,0.93293609
6719.899,0.93138921
6726.375,0.93058004
6732.864,0.93018296
6739.365,0.92984108
6745.879,0.9305378
6752.406,0.93239023
6758.945,0.93406099
6765.497,0.93524994
6772.062,0.93677545
6778.639,0.93794324
6785.229,0.93714752
6791.832,0.93521674
6798.448,0.93435001
6805.076,0.93474133
6811.718,0.93528676
6818.372,0.93592484
6825.039,0.93698971
6831.72,0.93799072
6838.413,0.93886881
6845.12,0.94049164
6851.84,0.94245957
6858.573,0.94269073
6865.319,0.94089965
6872.078,0.93928611
6878.851,0.9388445
6885.637,0.93877024
6892.437,0.93883705
6899.25,0.93942233
6906.076,0.93987668
6912.916,0.93941579
6919.769,0.93891744
6926.636,0.93951519
6933.517,0.94078081
6940.411,0.94188708
6947.319,0.94294602
6954.241,0.94384002
6961.176,0.94380135
6968.125,0.9432216
6975.089,0.94343168
6982.066,0.94437376
6989.057,0.94486534
6996.062,0.9448412
7003.081,0.94517562
7010.114,0.94585264
7017.161,0.94645088
7024.223,0.94744555
7031.298,0.94909219
7038.388,0.95026284
7045.492,0.95016216
7052.611,0.9496596
7059.743,0.94950561
7066.891,0.94933016
7074.052,0.94905133
7081.229,0.9492665
7088.419,0.94994431
7095.625,0.95044408
7102.845,0.95082069
7110.079,0.9515595
7117.329,0.95243063
7124.593,0.95299187
7131.872,0.95355318
7139.166,0.95446774
7146.475,0.95526242
7153.799,0.95540855
7161.137,0.95516907
7168.491,0.95503616
7175.86,0.95511114
7183.244,0.95542326
7190.643,0.95606269
7198.058,0.95682511
7205.487,0.95728107
7212.933,0.95733459
7220.393,0.95732787
7227.869,0.95756686
7235.36,0.95803738
7242.867,0.95859431
7250.39,0.95921639
7257.928,0.9599102
7265.481,0.96046912
7273.051,0.96067998
7280.636,0.96073415
7288.237,0.9609776
7295.854,0.96136985
7303.487,0.96172734
7311.135,0.96223916
7318.8,0.96306394
7326.481,0.96376746
7334.178,0.96391278
7341.891,0.96379496
7349.62,0.96384815
7357.366,0.96401491
7365.128,0.964249
7372.906,0.96481159
7380.701,0.96562254
7388.512,0.96623691
7396.34,0.96665471
7404.184,0.96723891
7412.045,0.96784985
7419.922,0.96811462
7427.817,0.96826299
7435.728,0.96873795
7443.656,0.96939349
7451.601,0.96990843
7459.562,0.97036376
7467.541,0.97079923
7475.537,0.97094235
7483.55,0.97083051
7491.58,0.97088053
7499.628,0.97116509
7507.692,0.97140125
7515.774,0.97157362
7523.874,0.97186857
7531.99,0.97221337
7540.125,0.97248543
7548.277,0.97280752
7556.446,0.9732302
7564.633,0.97358117
7572.838,0.97382864
7581.061,0.97408443
7589.302,0.97427982
7597.56,0.97431824
7605.837,0.97435304
7614.131,0.97449078
7622.444,0.9745821
7630.774,0.97457185
7639.123,0.97462251
7647.491,0.97476666
7655.876,0.97492335
7664.28,0.97518723
7672.702,0.9756326
7681.143,0.97604121
7689.602,0.97625962
7698.08,0.9764524
7706.577,0.97669268
7715.093,0.97681231
7723.627,0.97685126
7732.18,0.97708771
7740.752,0.97751556
7749.343,0.97788539
7757.953,0.97818165
7766.583,0.97854628
7775.231,0.97889957
7783.899,0.97914559
7792.586,0.97944461
7801.292,0.9799011
7810.018,0.98033709
7818.764,0.98067028
7827.529,0.9810755
7836.313,0.98159489
7845.117,0.98204243
7853.942,0.98239211
7862.786,0.98281906
7871.649,0.98334789
7880.533,0.98383573
7889.437,0.98427274
7898.361,0.98472381
7907.305,0.98511389
7916.27,0.98535631
7925.254,0.98557585
7934.26,0.98591677
7943.285,0.98632654
7952.331,0.98670843
7961.398,0.98712089
7970.485,0.98761481
7979.594,0.98808631
7988.723,0.98844022
7997.872,0.98874851
8007.043,0.98908386
8016.235,0.98939218
8025.448,0.9896439
8034.682,0.98994349
8043.937,0.99033789
8053.214,0.99072693
8062.512,0.99104472
8071.832,0.99132818
8081.173,0.9915609
8090.535,0.99168645
8099.92,0.99180929
8109.326,0.99209415
8118.754,0.99248296
8128.204,0.99280413
8137.676,0.99307264
8147.169,0.99339382
8156.686,0.99372022
8166.224,0.99399068
8175.785,0.99431986
8185.368,0.99477162
8194.973,0.99519566
8204.601,0.99549051
8214.252,0.99575657
8223.925,0.99603198
8233.621,0.99621679
8243.34,0.99634355
8253.082,0.99659756
8262.847,0.99700808
8272.635,0.99741782
8282.446,0.99775989
8292.281,0.99808606
8302.139,0.9984089
8312.02,0.99871966
8321.925,0.99908825
8331.853,0.99953742
8341.805,0.99994783
8351.781,0.0100022511
8361.781,0.0100045088
8371.804,0.01000754
8381.852,0.0100112508
8391.924,0.010014564
8402.02,0.0100171281
8412.14,0.0100194796
8422.285,0.0100218365
8432.454,0.0100238161
8442.648,0.0100255925
8452.866,0.0100278628
8463.109,0.0100304241
8473.377,0.0100324279
8483.67,0.0100342753
8493.988,0.0100368849
8504.331,0.0100395488
8514.699,0.0100410715
8525.092,0.010042398
8535.511,0.0100448099
8545.955,0.0100471855
8556.425,0.010048186
8566.921,0.0100491075
8577.442,0.0100512353
8587.989,0.0100533906
8598.562,0.0100546462
8609.161,0.0100561531
8619.786,0.0100581535
8630.437,0.0100593647
8641.115,0.0100601146
8651.819,0.0100620177
8662.55,0.0100645919
8673.307,0.0100665479
8684.091,0.010068796
8694.902,0.0100723855
8705.739,0.0100759706
8716.604,0.0100784037
8727.496,0.0100807077
8738.415,0.0100833135
8749.361,0.0100851397
8760.335,0.0100863957
8771.336,0.0100884359
8782.365,0.0100912917
8793.422,0.0100944981
8804.507,0.010098698
8815.619,0.0101037109
8826.76,0.0101080867
8837.928,0.0101118547
8849.125,0.0101161069
8860.351,0.0101199243
8871.604,0.0101220945
8882.887,0.0101241656
8894.198,0.0101276375
8905.538,0.0101311075
8916.907,0.0101336998
8928.305,0.0101368753
8939.732,0.010140356
8951.188,0.0101419426
8962.673,0.0101425178
8974.189,0.0101444957
8985.733,0.0101465713
8997.308,0.0101462835
9008.912,0.0101454044
9020.546,0.0101459853
9032.21,0.0101458094
9043.905,0.01014331
9055.629,0.0101413691
9067.384,0.0101414198
9079.17,0.0101409788
9090.986,0.0101395739
9102.833,0.0101396208
9114.711,0.0101399521
9126.62,0.0101370579
9138.56,0.0101319429
9150.531,0.0101282397
9162.534,0.0101255561
9174.568,0.0101220409
9186.634,0.0101193797
9198.731,0.0101191515
9210.86,0.0101187895
9223.022,0.0101164704
9235.215,0.0101143995
9247.441,0.0101138243
9259.699,0.0101125657
9271.99,0.010109937
9284.313,0.010108201
9296.669,0.01010811
9309.058,0.0101079609
9321.48,0.0101074197
9333.935,0.0101076281
9346.423,0.0101081752
9358.945,0.0101078895
9371.5,0.0101077384
9384.089,0.0101093899
9396.712,0.0101122677
9409.369,0.0101145162
9422.06,0.0101159224
9434.785,0.0101173833
9447.545,0.0101188896
9460.339,0.0101199377
9473.167,0.0101211607
9486.031,0.0101232951
9498.929,0.0101256044
9511.863,0.0101270683
9524.832,0.0101282431
9537.836,0.0101300367
9550.876,0.0101319455
9563.951,0.0101332617
9577.062,0.0101347013
9590.209,0.0101367934
9603.393,0.0101386033
9616.612,0.010139592
9629.868,0.0101407537
9643.16,0.0101425152
9656.49,0.0101440007
9669.856,0.0101451212
9683.259,0.0101468197
9696.699,0.0101487272
9710.176,0.0101494667
9723.691,0.0101490497
9737.244,0.0101485148
9750.834,0.0101478217
9764.463,0.0101465191
9778.129,0.010145241
9791.834,0.010144548
9805.577,0.010143786
9819.359,0.0101427771
9833.18,0.0101423526
9847.039,0.0101426879
9860.938,0.0101428287
9874.875,0.0101426842
9888.853,0.0101431304
9902.869,0.010144355
9916.926,0.0101455454
9931.022,0.0101463709
9945.159,0.0101469436
9959.336,0.0101471684
9973.553,0.0101471089
9987.811,0.0101475316
10002.109,0.010148848
10016.449,0.0101504019
10030.83,0.0101512814
10045.252,0.0101515325
10059.715,0.0101517226
10074.221,0.0101521648
10088.768,0.0101529921
10103.357,0.0101545715
10117.988,0.0101569345
10132.662,0.0101594015
10147.378,0.0101613524
10162.137,0.010163071
10176.939,0.0101652021
10191.784,0.0101678289
10206.672,0.0101707716
10221.604,0.0101741155
10236.58,0.0101775462
10251.6,0.0101802242
10266.663,0.0101819492
10281.771,0.0101834058
10296.924,0.0101847979
10312.121,0.0101858336
10327.363,0.0101868109
10342.65,0.0101883486
10357.982,0.0101901344
10373.36,0.01019169
10388.784,0.0101933937
10404.253,0.010195506
10419.769,0.0101972706
10435.331,0.0101982374
10450.939,0.0101986261
10466.594,0.0101981939
10482.296,0.0101968
10498.045,0.0101956427
10513.842,0.0101956284
10529.686,0.0101959345
10545.577,0.0101961076
10561.517,0.0101973104
10577.505,0.01019956
10593.542,0.0102012471
10609.627,0.010202215
10625.761,0.0102036315
10641.944,0.0102045771
10658.176,0.0102035887
10674.458,0.0102020654
10690.79,0.0102017745
10707.172,0.010201398
10723.604,0.010200132
10740.086,0.0102001049
10756.619,0.010201711
10773.203,0.0102020847
10789.839,0.0102010217
10806.525,0.0102013129
10823.264,0.0102025674
10840.054,0.0102022471
10856.896,0.0102019834
10873.791,0.0102044305
10890.738,0.0102070869
10907.738,0.0102069324
10924.791,0.0102066899
10941.898,0.0102089159
10959.058,0.0102108886
10976.272,0.0102109542
10993.541,0.0102119804
11010.863,0.0102144201
11028.24,0.010215131
11045.672,0.0102145543
11063.16,0.0102158337
11080.702,0.0102174661
11098.301,0.0102164793
11115.955,0.0102153118
11133.665,0.0102169904
11151.432,0.0102186038
11169.256,0.0102172499
11187.137,0.010215398
11205.075,0.0102149961
11223.07,0.0102138062
11241.124,0.0102113474
11259.235,0.0102098897
11277.405,0.0102090095
11295.634,0.010206371
11313.921,0.0102031118
11332.268,0.0102014049
11350.675,0.0101999769
11369.141,0.0101972596
11387.667,0.0101948977
11406.254,0.0101939272
11424.901,0.010192746
11443.61,0.010190678
11462.38,0.0101889742
11481.211,0.0101875873
11500.105,0.0101854907
11519.06,0.0101832149
11538.079,0.0101817275
11557.16,0.0101804263
11576.304,0.0101788564
11595.511,0.0101776681
11614.783,0.010176984
11634.118,0.0101761728
11653.518,0.0101754863
11672.983,0.0101755491
11692.513,0.0101759034
11712.108,0.0101756339
11731.769,0.0101749083
11751.496,0.0101743172
11771.29,0.0101741121
11791.15,0.0101743477
11811.077,0.0101752277
11831.072,0.0101766543
11851.134,0.0101783839
11871.265,0.0101800524
11891.464,0.0101815498
11911.731,0.0101829561
11932.068,0.0101840614
11952.475,0.0101841773
11972.951,0.0101837218
11993.497,0.0101842301
12014.114,0.0101862944
12034.802,0.0101886761
12055.562,0.0101907734
12076.393,0.010192661
12097.296,0.0101931705
12118.271,0.010191276
12139.32,0.0101889778
12160.441,0.0101883937
12181.636,0.0101883568
12202.905,0.0101875391
12224.249,0.0101877126
12245.667,0.0101892943
12267.16,0.0101894233
12288.729,0.0101875244
12310.373,0.0101867318
12332.094,0.0101872755
12353.892,0.0101860217
12375.767,0.0101832286
12397.719,0.0101818252
12419.75,0.0101808137
12441.859,0.0101778071
12464.046,0.0101753329
12486.313,0.0101765916
12508.659,0.0101790058
12531.086,0.0101791182
12553.593,0.0101780018
12576.18,0.0101768663
12598.85,0.0101738789
12621.601,0.0101695616
12644.434,0.0101677876
12667.35,0.0101690896
12690.349,0.0101697363
12713.432,0.0101691781
12736.599,0.0101703594
12759.85,0.010172945
12783.187,0.0101736099
12806.608,0.0101727072
12830.116,0.0101732929
12853.71,0.0101751267
12877.391,0.0101758668
12901.159,0.0101764056
12925.016,0.0101787935
12948.96,0.0101815438
12972.993,0.0101823908
12997.116,0.0101832305
13021.329,0.010186476
13045.631,0.0101902894
13070.025,0.0101921097
13094.51,0.0101933289
13119.087,0.0101953011
13143.756,0.0101961356
13168.518,0.0101956137
13193.373,0.0101975696
13218.322,0.0102025048
13243.366,0.0102055801
13268.505,0.0102052118
13293.74,0.0102055975
13319.07,0.0102077463
13344.497,0.0102082498
13370.021,0.0102073992
13395.644,0.0102085312
13421.364,0.0102097653
13447.183,0.0102079106
13473.102,0.0102062355
13499.121,0.0102080539
13525.24,0.0102086631
13551.461,0.0102046343
13577.783,0.0102007701
13604.208,0.0102000455
13630.736,0.0101980229
13657.367,0.0101942451
13684.103,0.0101935942
13710.943,0.0101941689
13737.889,0.0101890334
13764.941,0.0101809753
13792.099,0.0101775607
13819.365,0.0101769705
13846.739,0.010174248
13874.221,0.0101730493
13901.813,0.0101758633
13929.515,0.010176338
13957.327,0.0101722456
13985.25,0.0101710092
14013.285,0.0101734922
14041.433,0.0101722435
14069.694,0.0101681441
14098.068,0.0101684831
14126.558,0.0101698276
14155.163,0.0101649833
14183.883,0.0101587138
14212.721,0.0101573057
14241.676,0.0101547675
14270.749,0.0101479137
14299.94,0.010145745
14329.252,0.0101507755
14358.684,0.0101523374
14388.237,0.0101481681
14417.911,0.0101462305
14447.709,0.0101448481
14477.629,0.0101365039
14507.674,0.0101282799
14537.844,0.0101293824
14568.139,0.0101320381
14598.561,0.0101273038
14629.109,0.010123628
14659.786,0.0101261314
14690.592,0.0101250528
14721.528,0.0101180781
14752.594,0.0101174777
14783.791,0.0101210659
14815.121,0.0101131877
14846.583,0.0100920042
14878.179,0.0100680713
14909.91,0.0100410777
14941.777,0.0100152869
14973.78,0.0100105359
15005.92,0.010033077
15038.198,0.0100546749
15070.616,0.0100589294
15103.173,0.0100556369
15135.871,0.0100547571
15168.712,0.0100438174
15201.695,0.0100227466
15234.821,0.99960633
15268.092,0.99663151
15301.509,0.99266077
15335.072,0.98910083
15368.783,0.98541293
15402.642,0.98117707
15436.651,0.97497002
15470.81,0.96967782
15505.12,0.96406246
15539.583,0.95909891
15574.199,0.9525371
15608.97,0.94595433
15643.896,0.93361215
15678.979,0.91950882
15714.22,0.90201323
15749.619,0.88682699
15785.178,0.86936159
15820.897,0.85344021
15856.779,0.83926949
15892.824,0.83211437
15929.033,0.82130884
15965.407,0.80468435
