Database of Origin,University of Winnipeg Spectrophotometer Facility
Sample Description,16.11. Meteorites - HEDs 16.11.3. NASA samples (4) Bruker Vertex 70 FTIR spectrometer
Other Information,MIR Glowbar KBr Beam Splitter MCT cryo cooled Dectect.
Date Added,2018-07-23 23:49:05.254804

Data ID,FTIR_MET2_6_5       
Sample ID,Millbillillie
Mineral Name,Eucrite
Grain Size,Surface
Viewing Geometry,i30/ e0
Resolution,7.71cm-1

Wavelength
1672.316177,0.19657
1674.476792,0.19605
1676.642997,0.19585
1678.814814,0.19563
1680.992268,0.19534
1683.175374,0.19499
1685.364158,0.19445
1687.558643,0.19346
1689.758849,0.19251
1691.9648,0.19198
1694.176519,0.19091
1696.394027,0.18971
1698.61735,0.18952
1700.846507,0.18916
1703.081521,0.18791
1705.322418,0.18674
1707.569219,0.18604
1709.821949,0.18547
1712.08063,0.18504
1714.345286,0.18476
1716.615945,0.18451
1718.892624,0.18427
1721.175349,0.18357
1723.464146,0.1819
1725.759038,0.18054
1728.060049,0.18019
1730.367205,0.17987
1732.68053,0.17881
1735.000051,0.17765
1737.325788,0.17718
1739.657769,0.17689
1741.996018,0.17609
1744.340562,0.17545
1746.691425,0.17587
1749.048633,0.1762
1751.412211,0.17543
1753.78219,0.17426
1756.158588,0.17377
1758.541435,0.17424
1760.930758,0.17446
1763.326581,0.1734
1765.728933,0.17191
1768.13784,0.17097
1770.553328,0.17062
1772.975429,0.17025
1775.404162,0.16937
1777.839558,0.1684
1780.281645,0.16795
1782.73045,0.16775
1785.186001,0.16717
1787.648326,0.16677
1790.117454,0.16656
1792.593414,0.16581
1795.07623,0.16493
1797.565933,0.16439
1800.062552,0.16385
1802.566116,0.16327
1805.076653,0.1626
1807.594193,0.16168
1810.118766,0.16115
1812.650403,0.16138
1815.189129,0.16154
1817.734976,0.16105
1820.287974,0.15997
1822.848154,0.159
1825.415545,0.15882
1827.990179,0.15877
1830.572085,0.15813
1833.161299,0.15727
1835.757844,0.15635
1838.361756,0.15578
1840.973065,0.15576
1843.591803,0.15573
1846.218001,0.15551
1848.851693,0.15512
1851.492909,0.15471
1854.141686,0.15415
1856.798049,0.15318
1859.462034,0.15195
1862.133675,0.15121
1864.813003,0.15119
1867.500053,0.15128
1870.194858,0.151
1872.897451,0.15036
1875.60787,0.14966
1878.326142,0.14886
1881.052305,0.14838
1883.786392,0.14837
1886.528439,0.14834
1889.27848,0.14767
1892.03655,0.14664
1894.802685,0.14589
1897.576923,0.14518
1900.359294,0.14471
1903.149835,0.14454
1905.948585,0.14417
1908.755578,0.1436
1911.570851,0.14285
1914.394441,0.14219
1917.226385,0.14164
1920.066724,0.14108
1922.915487,0.14098
1925.772716,0.14108
1928.638449,0.14086
1931.512723,0.14075
1934.395578,0.14063
1937.28705,0.14011
1940.18718,0.13969
1943.09601,0.1396
1946.013571,0.13946
1948.939907,0.13927
1951.875057,0.13922
1954.819061,0.13905
1957.771959,0.13844
1960.733792,0.13759
1963.7046,0.13736
1966.684429,0.13781
1969.67331,0.13788
1972.671291,0.13758
1975.678411,0.13746
1978.694713,0.13743
1981.72024,0.13735
1984.755033,0.13744
1987.799135,0.13736
1990.852594,0.13692
1993.915443,0.13653
1996.987732,0.13615
2000.069502,0.13586
2003.160799,0.13558
2006.261667,0.13528
2009.37215,0.13541
2012.492292,0.1357
2015.622144,0.13574
2018.761742,0.13546
2021.911136,0.13511
2025.070371,0.13515
2028.239495,0.13519
2031.418553,0.13497
2034.607593,0.13498
2037.806661,0.13489
2041.015809,0.13474
2044.235076,0.13511
2047.464515,0.13528
2050.704173,0.13497
2053.9541,0.13467
2057.214344,0.13437
2060.484955,0.13418
2063.765981,0.13415
2067.057478,0.13419
2070.359486,0.13435
2073.672061,0.13454
2076.995253,0.13459
2080.329113,0.13443
2083.673693,0.13426
2087.029044,0.13433
2090.39522,0.1345
2093.772276,0.13449
2097.160256,0.13454
2100.559219,0.13469
2103.969217,0.13454
2107.390304,0.13427
2110.822536,0.13437
2114.265965,0.13456
2117.720647,0.13472
2121.186643,0.13493
2124.663997,0.13486
2128.152772,0.13474
2131.653022,0.13495
2135.164806,0.13517
2138.68818,0.1354
2142.223201,0.13576
2145.769927,0.13602
2149.328422,0.13599
2152.898735,0.13581
2156.480928,0.13593
2160.075063,0.13636
2163.681197,0.13673
2167.299393,0.1369
2170.929709,0.13697
2174.572208,0.13706
2178.226956,0.13708
2181.894004,0.13705
2185.57342,0.13722
2189.265266,0.13728
2192.969606,0.13721
2196.686503,0.13718
2200.416021,0.1372
2204.158225,0.13763
2207.913183,0.13843
2211.680953,0.13896
2215.461603,0.13912
2219.255201,0.13919
2223.061813,0.13944
2226.881507,0.14001
2230.714349,0.14067
2234.560407,0.14097
2238.419756,0.14121
2242.292454,0.14164
2246.178575,0.14182
2250.07819,0.14192
2253.991369,0.14222
2257.918183,0.14254
2261.858702,0.14303
2265.813,0.1437
2269.781154,0.14417
2273.763225,0.14432
2277.759293,0.14451
2281.769432,0.1449
2285.793716,0.1452
2289.832221,0.14522
2293.88502,0.14533
2297.952192,0.14575
2302.033816,0.1463
2306.129961,0.14683
2310.240709,0.14729
2314.366139,0.14762
2318.506328,0.14791
2322.661356,0.14823
2326.831304,0.14843
2331.016252,0.14871
2335.216286,0.14907
2339.431477,0.14949
2343.661913,0.15005
2347.907677,0.15059
2352.168852,0.15103
2356.445521,0.15152
2360.737771,0.15208
2365.045686,0.15278
2369.369358,0.15356
2373.708861,0.15419
2378.06429,0.15461
2382.435731,0.15493
2386.823273,0.15528
2391.227005,0.1556
2395.647017,0.15586
2400.0834,0.15614
2404.53625,0.15655
2409.005647,0.15716
2413.491691,0.15769
2417.994473,0.15803
2422.514088,0.15838
2427.050631,0.15891
2431.604196,0.15939
2436.17488,0.15958
2440.762785,0.15983
2445.367997,0.16021
2449.99062,0.16063
2454.630753,0.16097
2459.288496,0.16111
2463.963948,0.16132
2468.657212,0.16184
2473.368389,0.16242
2478.097588,0.16279
2482.844901,0.16304
2487.610438,0.16353
2492.394303,0.16408
2497.196603,0.16436
2502.017445,0.1646
2506.856937,0.16497
2511.715186,0.16534
2516.592308,0.1656
2521.488402,0.16587
2526.403583,0.16641
2531.337964,0.16712
2536.291658,0.16775
2541.264778,0.16826
2546.257439,0.16852
2551.269756,0.16886
2556.301852,0.16932
2561.353831,0.16954
2566.425818,0.17
2571.517932,0.1706
2576.630293,0.17087
2581.763021,0.17119
2586.91624,0.17174
2592.090072,0.17211
2597.284647,0.17227
2602.500077,0.17243
2607.736495,0.17251
2612.994027,0.17268
2618.272802,0.17298
2623.572949,0.17319
2628.894597,0.17329
2634.237878,0.17344
2639.60293,0.17347
2644.989874,0.17344
2650.398851,0.1735
2655.829995,0.17349
2661.283444,0.1734
2666.759335,0.17322
2672.257807,0.17282
2677.779,0.17172
2683.323062,0.16979
2688.890121,0.16694
2694.480328,0.16277
2700.093828,0.15884
2705.730766,0.15644
2711.39129,0.15477
2717.075548,0.15259
2722.783689,0.14921
2728.515871,0.14598
2734.272233,0.1433
2740.052934,0.14004
2745.85813,0.13691
2751.687977,0.13423
2757.542631,0.1311
2763.422252,0.12796
2769.327,0.12567
2775.257043,0.12428
2781.212529,0.12288
2787.19363,0.1212
2793.200512,0.11958
2799.233341,0.11808
2805.292287,0.11659
2811.377519,0.11531
2817.489208,0.11422
2823.627536,0.11323
2829.79266,0.1124
2835.984766,0.11162
2842.20403,0.11062
2848.450631,0.10968
2854.72475,0.10899
2861.02657,0.1084
2867.356274,0.10753
2873.714055,0.1064
2880.100086,0.10541
2886.514561,0.10465
2892.957673,0.10404
2899.429613,0.10363
2905.930575,0.10316
2912.460755,0.10266
2919.020351,0.10199
2925.609569,0.10108
2932.228594,0.10042
2938.877637,0.09995
2945.556904,0.09945
2952.266599,0.09912
2959.006933,0.09915
2965.778115,0.09933
2972.580357,0.09938
2979.413883,0.09949
2986.278891,0.09983
2993.175608,0.10004
3000.104254,0.10006
3007.065051,0.09998
3014.058225,0.09989
3021.084,0.10014
3028.142607,0.10054
3035.234283,0.10075
3042.359245,0.10098
3049.517737,0.10139
3056.709994,0.10179
3063.936258,0.10214
3071.196769,0.10243
3078.491772,0.10273
3085.821513,0.10316
3093.186251,0.10356
3100.586217,0.10399
3108.021674,0.1046
3115.492879,0.10549
3123.000089,0.10645
3130.543567,0.10708
3138.123574,0.10748
3145.740377,0.10796
3153.394256,0.10875
3161.08546,0.10998
3168.814274,0.11112
3176.580974,0.11201
3184.38584,0.11279
3192.229154,0.1134
3200.1112,0.11407
3208.032266,0.1148
3215.992653,0.1156
3223.992633,0.11655
3232.032514,0.11723
3240.112594,0.1176
3248.233176,0.11803
3256.394564,0.11855
3264.597068,0.11908
3272.840999,0.11969
3281.126681,0.12019
3289.454413,0.12063
3297.824524,0.12108
3306.237341,0.12149
3314.693189,0.12185
3323.192401,0.12207
3331.735311,0.12207
3340.322256,0.12179
3348.95359,0.12117
3357.629634,0.12028
3366.350748,0.11924
3375.117285,0.11851
3383.929601,0.11841
3392.788054,0.11792
3401.693008,0.11617
3410.64483,0.1141
3419.643903,0.11388
3428.690579,0.11608
3437.785247,0.11918
3446.928291,0.12171
3456.120099,0.12294
3465.36106,0.12314
3474.651571,0.12296
3483.99203,0.12246
3493.382855,0.1216
3502.824429,0.12169
3512.317177,0.1237
3521.861515,0.12614
3531.457866,0.12778
3541.106657,0.12873
3550.808317,0.12918
3560.563284,0.12922
3570.372009,0.12918
3580.234914,0.12932
3590.15246,0.12951
3600.125104,0.12955
3610.153306,0.12953
3620.237532,0.12953
3630.378252,0.12959
3640.575942,0.12968
3650.831097,0.12964
3661.144177,0.12941
3671.515689,0.12894
3681.946129,0.12826
3692.436003,0.12768
3702.985818,0.12721
3713.596091,0.12668
3724.267342,0.12629
3735.000113,0.12612
3745.79491,0.12596
3756.652285,0.1258
3767.572784,0.12582
3778.556959,0.12605
3789.605369,0.12622
3800.71858,0.12602
3811.897162,0.1256
3823.141709,0.12519
3834.452778,0.12477
3845.830974,0.12444
3857.276898,0.1243
3868.791155,0.12429
3880.37436,0.12434
3892.027134,0.12439
3903.750106,0.12442
3915.543926,0.12428
3927.409209,0.12393
3939.346621,0.12346
3951.356822,0.12279
3963.44048,0.12203
3975.598271,0.12129
3987.830879,0.12068
4000.138997,0.12039
4012.523342,0.12041
4024.984593,0.12066
4037.523484,0.12085
4050.140742,0.12081
4062.837106,0.12063
4075.613322,0.12005
4088.470144,0.11909
4101.408338,0.11814
4114.428697,0.11733
4127.531971,0.11659
4140.718972,0.11579
4153.990505,0.11495
4167.347385,0.11421
4180.790439,0.11365
4194.320503,0.11417
4207.938425,0.11666
4221.64508,0.12009
4235.441304,0.12128
4249.327994,0.11958
4263.306045,0.11806
4277.376359,0.117
4291.539855,0.11519
4305.79746,0.11278
4320.150116,0.11014
4334.598795,0.10748
4349.144426,0.10493
4363.788008,0.10263
4378.530532,0.10054
4393.373006,0.09846
4408.316449,0.09666
4423.361896,0.09539
4438.510393,0.09441
4453.763023,0.09338
4469.120824,0.09233
4484.584908,0.0917
4500.15638,0.09215
4515.836365,0.09344
4531.626,0.09464
4547.52644,0.09538
4563.538854,0.09558
4579.664452,0.09492
4595.904394,0.09322
4612.259923,0.09094
4628.732277,0.08852
4645.322713,0.086
4662.032504,0.08362
4678.862943,0.0817
4695.815342,0.08038
4712.891054,0.07918
4730.091384,0.07772
4747.417723,0.0758
4764.871462,0.07368
4782.45401,0.07171
4800.1668,0.06979
4818.011283,0.06787
4835.988934,0.06591
4854.101273,0.06355
4872.349771,0.06081
4890.735994,0.05781
4909.261506,0.05498
4927.927896,0.05297
4946.736778,0.05138
4965.68979,0.04971
4984.788594,0.04821
5004.034903,0.04693
5023.430384,0.04581
5042.976803,0.04492
5062.675928,0.04424
5082.529556,0.04368
5102.539511,0.04308
5122.707649,0.04233
5143.03585,0.0415
5163.526056,0.04072
5184.180157,0.03992
5205.000154,0.03887
5225.988055,0.03793
5247.145898,0.03737
5268.475756,0.03693
5289.979735,0.03677
5311.659976,0.03703
5333.518684,0.03748
5355.558014,0.03789
5377.780242,0.03815
5400.187657,0.03832
5422.78258,0.03863
5445.567377,0.03915
5468.544451,0.03962
5491.716246,0.04001
5515.085278,0.04042
5538.654014,0.04037
5562.425058,0.03963
5586.401024,0.03868
5610.584574,0.03801
5634.978416,0.03768
5659.585305,0.03756
5684.408043,0.03744
5709.449517,0.03716
5734.712564,0.03659
5760.200171,0.03567
5785.915346,0.03476
5811.861151,0.03416
5838.040701,0.03348
5864.457171,0.03235
5891.11379,0.03054
5918.013883,0.02887
5945.160732,0.02759
5972.557781,0.02668
6000.208507,0.02633
6028.116449,0.02613
6056.285213,0.02558
6084.718472,0.02491
6113.41997,0.02427
6142.393557,0.02372
6171.643046,0.02336
6201.172433,0.02313
6230.985758,0.02306
6261.087133,0.02303
6291.480755,0.02305
6322.1709,0.02322
6353.161929,0.02373
6384.458328,0.02426
6416.064553,0.02433
6447.985267,0.02425
6480.225188,0.02427
6512.789128,0.02427
6545.681997,0.02398
6578.908804,0.0235
6612.47466,0.02342
6646.384825,0.02363
6680.644535,0.02378
6715.259268,0.02376
6750.234571,0.02356
6785.576107,0.02331
6821.28966,0.02308
6857.381134,0.02272
6893.856559,0.02233
6930.722144,0.02203
6967.984085,0.02178
7005.648858,0.02155
7043.72303,0.0211
7082.213314,0.02055
7121.126567,0.02022
7160.469802,0.01989
7200.250183,0.01941
7240.47509,0.01887
7281.15191,0.01841
7322.288355,0.0181
7363.892259,0.01784
7405.971636,0.01757
7448.534685,0.01724
7491.589791,0.01683
7535.145539,0.01645
7579.210768,0.0161
7623.794353,0.01584
7668.905555,0.01569
7714.553795,0.01552
7760.74872,0.01546
7807.500211,0.01573
7854.818386,0.01626
7902.713612,0.01706
7951.196573,0.01834
8000.278026,0.0201
8049.969186,0.02241
8100.281485,0.02552
8151.226643,0.02921
8202.816677,0.0324
8255.063908,0.03446
8307.980976,0.03596
8361.580914,0.03746
8415.876885,0.03873
8470.882607,0.03952
8526.612089,0.03959
8583.07971,0.03882
8640.300232,0.03881
8698.288814,0.04114
8757.061026,0.04454
8816.632938,0.04819
8877.020825,0.05326
8938.241648,0.0601
9000.312761,0.06756
9063.252001,0.07384
9127.077709,0.07761
9191.808745,0.07859
9257.464511,0.0768
9324.065051,0.07238
9391.630729,0.06654
9460.182767,0.06176
9529.742923,0.06004
9600.3336,0.06077
9671.977869,0.06191
9744.699495,0.06183
9818.522964,0.06042
9893.473606,0.05832
9969.577237,0.05626
10046.86077,0.05518
10125.35186,0.05532
10205.07902,0.05611
10286.0717,0.05753
10368.36026,0.05991
10451.97605,0.06204
10536.95157,0.06311
10623.32001,0.06354
10711.11603,0.06263
10800.37531,0.05978
10891.13475,0.05683
10983.43249,0.05679
11077.30797,0.06001
11172.80199,0.06316
11269.9569,0.06339
11368.81615,0.06112
11469.42513,0.05738
11571.83069,0.05219
11676.0814,0.0469
11782.22758,0.04232
11890.32139,0.03845
12000.41694,0.03603
12112.5705,0.03444
12226.84001,0.033
12343.28609,0.03234
12461.97152,0.03227
12582.96151,0.03166
12706.32386,0.03098
12832.12902,0.03046
12960.45029,0.02968
13091.36408,0.02873
13224.94941,0.02686
13361.28907,0.02481
13500.46914,0.02438
13642.57932,0.02503
13787.71312,0.02557
13935.96807,0.02512
14087.44596,0.02335
14242.25324,0.02148
14400.50047,0.02048
14562.30382,0.02009
14727.78452,0.02022
14897.06937,0.02081
15070.29108,0.02096
15247.58859,0.02101
15429.10747,0.02325
15615.00054,0.02795
15805.42735,0.03191
16000.55605,0.0324
16200.56297,0.03129
16405.63335,0.03244
16615.96195,0.03647
16831.75363,0.04185
17053.22403,0.04677
17280.60061,0.05026
17514.12221,0.05375
17754.04165,0.05633
18000.62552,0.05757
18254.15542,0.06038
18514.92902,0.06395
18783.26128,0.06623
19059.48566,0.06893
19343.95592,0.07358
19637.04612,0.07921
19939.15447,0.08431
20250.70371,0.08689
20572.1434,0.08498
20903.95211,0.07928
21246.63979,0.07235
21600.75039,0.06662
21966.86522,0.06078
22345.60422,0.05383
22737.6323,0.05033
23143.66139,0.05273
23564.45516,0.05373
24000.83388,0.04692
24453.67973,0.03777
24923.94272,0.03413
25412.64804,0.06263
