Database of Origin,University of Winnipeg Spectrophotometer Facility
Sample Description,16.11. Meteorites - HEDs 16.11.3. NASA samples (4) Bruker Vertex 70 FTIR spectrometer
Other Information,MIR Glowbar KBr Beam Splitter MCT cryo cooled Dectect.
Date Added,2018-07-23 23:49:06.232198

Data ID,FTIR_MET2_6_51      
Sample ID,NWA 1943
Mineral Name,Howardite
Grain Size,90-250 um
Viewing Geometry,i30/ e0
Resolution,7.71cm-1

Wavelength
1672.316177,0.29198
1674.476792,0.2909
1676.642997,0.29076
1678.814814,0.29062
1680.992268,0.28957
1683.175374,0.28869
1685.364158,0.28828
1687.558643,0.28806
1689.758849,0.28796
1691.9648,0.28705
1694.176519,0.28583
1696.394027,0.28531
1698.61735,0.28463
1700.846507,0.28364
1703.081521,0.28328
1705.322418,0.28341
1707.569219,0.28336
1709.821949,0.28281
1712.08063,0.28183
1714.345286,0.28057
1716.615945,0.27944
1718.892624,0.27944
1721.175349,0.28015
1723.464146,0.28018
1725.759038,0.27906
1728.060049,0.27772
1730.367205,0.27697
1732.68053,0.27646
1735.000051,0.27639
1737.325788,0.27663
1739.657769,0.27616
1741.996018,0.27519
1744.340562,0.27471
1746.691425,0.27408
1749.048633,0.27252
1751.412211,0.27167
1753.78219,0.27215
1756.158588,0.27224
1758.541435,0.27145
1760.930758,0.27047
1763.326581,0.26934
1765.728933,0.26881
1768.13784,0.269
1770.553328,0.26843
1772.975429,0.26738
1775.404162,0.267
1777.839558,0.26716
1780.281645,0.26742
1782.73045,0.2673
1785.186001,0.26663
1787.648326,0.26596
1790.117454,0.26536
1792.593414,0.2649
1795.07623,0.26442
1797.565933,0.26356
1800.062552,0.2628
1802.566116,0.26246
1805.076653,0.26237
1807.594193,0.26233
1810.118766,0.2621
1812.650403,0.26142
1815.189129,0.26066
1817.734976,0.26003
1820.287974,0.25903
1822.848154,0.25827
1825.415545,0.25821
1827.990179,0.258
1830.572085,0.25766
1833.161299,0.25731
1835.757844,0.25658
1838.361756,0.25617
1840.973065,0.2564
1843.591803,0.25655
1846.218001,0.25579
1848.851693,0.25455
1851.492909,0.25405
1854.141686,0.25379
1856.798049,0.25345
1859.462034,0.25306
1862.133675,0.25258
1864.813003,0.25222
1867.500053,0.2518
1870.194858,0.25123
1872.897451,0.25098
1875.60787,0.25147
1878.326142,0.25194
1881.052305,0.2518
1883.786392,0.25094
1886.528439,0.25015
1889.27848,0.25003
1892.03655,0.24965
1894.802685,0.24885
1897.576923,0.24796
1900.359294,0.24766
1903.149835,0.24836
1905.948585,0.24849
1908.755578,0.24782
1911.570851,0.24715
1914.394441,0.2465
1917.226385,0.24604
1920.066724,0.24581
1922.915487,0.24635
1925.772716,0.24743
1928.638449,0.24737
1931.512723,0.24643
1934.395578,0.24586
1937.28705,0.24565
1940.18718,0.2455
1943.09601,0.24528
1946.013571,0.24496
1948.939907,0.24472
1951.875057,0.24467
1954.819061,0.24431
1957.771959,0.24357
1960.733792,0.24312
1963.7046,0.24302
1966.684429,0.2432
1969.67331,0.2434
1972.671291,0.24357
1975.678411,0.24406
1978.694713,0.24424
1981.72024,0.24378
1984.755033,0.2431
1987.799135,0.24261
1990.852594,0.24254
1993.915443,0.24252
1996.987732,0.2425
2000.069502,0.24263
2003.160799,0.24236
2006.261667,0.24186
2009.37215,0.242
2012.492292,0.24254
2015.622144,0.24265
2018.761742,0.24252
2021.911136,0.2427
2025.070371,0.24267
2028.239495,0.24232
2031.418553,0.24213
2034.607593,0.24175
2037.806661,0.24133
2041.015809,0.2416
2044.235076,0.24219
2047.464515,0.24266
2050.704173,0.24291
2053.9541,0.24287
2057.214344,0.24286
2060.484955,0.24283
2063.765981,0.2427
2067.057478,0.24281
2070.359486,0.24308
2073.672061,0.24328
2076.995253,0.24345
2080.329113,0.24351
2083.673693,0.24359
2087.029044,0.24374
2090.39522,0.24399
2093.772276,0.24403
2097.160256,0.24375
2100.559219,0.2436
2103.969217,0.24375
2107.390304,0.24428
2110.822536,0.24485
2114.265965,0.24515
2117.720647,0.24527
2121.186643,0.24535
2124.663997,0.24544
2128.152772,0.24553
2131.653022,0.24561
2135.164806,0.246
2138.68818,0.24675
2142.223201,0.24742
2145.769927,0.24771
2149.328422,0.24776
2152.898735,0.24768
2156.480928,0.24761
2160.075063,0.24756
2163.681197,0.24741
2167.299393,0.24789
2170.929709,0.24877
2174.572208,0.24907
2178.226956,0.24938
2181.894004,0.25009
2185.57342,0.25066
2189.265266,0.25084
2192.969606,0.25096
2196.686503,0.2513
2200.416021,0.25155
2204.158225,0.25178
2207.913183,0.25219
2211.680953,0.25246
2215.461603,0.25257
2219.255201,0.25285
2223.061813,0.25338
2226.881507,0.2539
2230.714349,0.25422
2234.560407,0.25467
2238.419756,0.25538
2242.292454,0.2559
2246.178575,0.25605
2250.07819,0.25629
2253.991369,0.25669
2257.918183,0.25709
2261.858702,0.25749
2265.813,0.25792
2269.781154,0.25831
2273.763225,0.25871
2277.759293,0.2594
2281.769432,0.26021
2285.793716,0.26078
2289.832221,0.26116
2293.88502,0.26159
2297.952192,0.26204
2302.033816,0.26235
2306.129961,0.26269
2310.240709,0.26323
2314.366139,0.26367
2318.506328,0.26387
2322.661356,0.26446
2326.831304,0.26547
2331.016252,0.26591
2335.216286,0.2659
2339.431477,0.26636
2343.661913,0.2671
2347.907677,0.26777
2352.168852,0.26821
2356.445521,0.2687
2360.737771,0.26938
2365.045686,0.26968
2369.369358,0.27015
2373.708861,0.27117
2378.06429,0.27174
2382.435731,0.27174
2386.823273,0.27194
2391.227005,0.27237
2395.647017,0.27275
2400.0834,0.27333
2404.53625,0.27405
2409.005647,0.27461
2413.491691,0.27518
2417.994473,0.27579
2422.514088,0.27625
2427.050631,0.27667
2431.604196,0.27712
2436.17488,0.27743
2440.762785,0.27778
2445.367997,0.27834
2449.99062,0.27892
2454.630753,0.27957
2459.288496,0.28032
2463.963948,0.28089
2468.657212,0.28135
2473.368389,0.28195
2478.097588,0.28259
2482.844901,0.28308
2487.610438,0.28353
2492.394303,0.28403
2497.196603,0.28439
2502.017445,0.28448
2506.856937,0.28478
2511.715186,0.28539
2516.592308,0.28609
2521.488402,0.28653
2526.403583,0.2867
2531.337964,0.28695
2536.291658,0.2871
2541.264778,0.28715
2546.257439,0.28736
2551.269756,0.28782
2556.301852,0.28811
2561.353831,0.28768
2566.425818,0.28762
2571.517932,0.28798
2576.630293,0.28808
2581.763021,0.28834
2586.91624,0.28866
2592.090072,0.28859
2597.284647,0.28874
2602.500077,0.28936
2607.736495,0.28985
2612.994027,0.29017
2618.272802,0.29045
2623.572949,0.29115
2628.894597,0.29159
2634.237878,0.29246
2639.60293,0.29361
2644.989874,0.29394
2650.398851,0.29408
2655.829995,0.29429
2661.283444,0.29411
2666.759335,0.29359
2672.257807,0.29351
2677.779,0.29417
2683.323062,0.29525
2688.890121,0.29596
2694.480328,0.29579
2700.093828,0.29565
2705.730766,0.29569
2711.39129,0.29535
2717.075548,0.29446
2722.783689,0.29322
2728.515871,0.29316
2734.272233,0.29235
2740.052934,0.28951
2745.85813,0.28828
2751.687977,0.28748
2757.542631,0.28493
2763.422252,0.28266
2769.327,0.28141
2775.257043,0.28064
2781.212529,0.27955
2787.19363,0.27822
2793.200512,0.27762
2799.233341,0.27684
2805.292287,0.2755
2811.377519,0.27482
2817.489208,0.27457
2823.627536,0.27432
2829.79266,0.27389
2835.984766,0.27356
2842.20403,0.27339
2848.450631,0.27262
2854.72475,0.27177
2861.02657,0.27155
2867.356274,0.27161
2873.714055,0.27174
2880.100086,0.27164
2886.514561,0.27112
2892.957673,0.27053
2899.429613,0.27025
2905.930575,0.27014
2912.460755,0.26979
2919.020351,0.26923
2925.609569,0.26886
2932.228594,0.26901
2938.877637,0.26906
2945.556904,0.26876
2952.266599,0.26859
2959.006933,0.26854
2965.778115,0.26855
2972.580357,0.26869
2979.413883,0.26859
2986.278891,0.26839
2993.175608,0.26859
3000.104254,0.26891
3007.065051,0.26888
3014.058225,0.26877
3021.084,0.26895
3028.142607,0.26929
3035.234283,0.26949
3042.359245,0.26954
3049.517737,0.26961
3056.709994,0.26973
3063.936258,0.26968
3071.196769,0.26962
3078.491772,0.27006
3085.821513,0.27072
3093.186251,0.27077
3100.586217,0.27046
3108.021674,0.2707
3115.492879,0.2714
3123.000089,0.27205
3130.543567,0.2725
3138.123574,0.27273
3145.740377,0.27322
3153.394256,0.27389
3161.08546,0.27442
3168.814274,0.27495
3176.580974,0.27518
3184.38584,0.2751
3192.229154,0.27528
3200.1112,0.27577
3208.032266,0.27621
3215.992653,0.27651
3223.992633,0.27678
3232.032514,0.27718
3240.112594,0.27759
3248.233176,0.27769
3256.394564,0.27766
3264.597068,0.2778
3272.840999,0.27811
3281.126681,0.27855
3289.454413,0.27901
3297.824524,0.27939
3306.237341,0.27967
3314.693189,0.27981
3323.192401,0.27986
3331.735311,0.28026
3340.322256,0.28083
3348.95359,0.28064
3357.629634,0.27971
3366.350748,0.27874
3375.117285,0.27833
3383.929601,0.27834
3392.788054,0.27796
3401.693008,0.27669
3410.64483,0.27508
3419.643903,0.27458
3428.690579,0.27578
3437.785247,0.27761
3446.928291,0.27902
3456.120099,0.27983
3465.36106,0.28007
3474.651571,0.2799
3483.99203,0.2793
3493.382855,0.2785
3502.824429,0.27864
3512.317177,0.28
3521.861515,0.28151
3531.457866,0.28234
3541.106657,0.28254
3550.808317,0.2826
3560.563284,0.28256
3570.372009,0.28248
3580.234914,0.28251
3590.15246,0.28246
3600.125104,0.28228
3610.153306,0.28225
3620.237532,0.2823
3630.378252,0.2824
3640.575942,0.28248
3650.831097,0.28232
3661.144177,0.28209
3671.515689,0.28197
3681.946129,0.28196
3692.436003,0.28196
3702.985818,0.28181
3713.596091,0.28167
3724.267342,0.28156
3735.000113,0.28142
3745.79491,0.28134
3756.652285,0.28114
3767.572784,0.28084
3778.556959,0.2808
3789.605369,0.28091
3800.71858,0.28077
3811.897162,0.28051
3823.141709,0.28038
3834.452778,0.28033
3845.830974,0.28016
3857.276898,0.27979
3868.791155,0.27955
3880.37436,0.27964
3892.027134,0.27961
3903.750106,0.27925
3915.543926,0.27899
3927.409209,0.27913
3939.346621,0.27928
3951.356822,0.27899
3963.44048,0.27848
3975.598271,0.27799
3987.830879,0.2776
4000.138997,0.27747
4012.523342,0.27752
4024.984593,0.27716
4037.523484,0.27656
4050.140742,0.27623
4062.837106,0.27613
4075.613322,0.27601
4088.470144,0.27567
4101.408338,0.2753
4114.428697,0.27495
4127.531971,0.27461
4140.718972,0.27438
4153.990505,0.27417
4167.347385,0.27402
4180.790439,0.27392
4194.320503,0.27367
4207.938425,0.27308
4221.64508,0.27162
4235.441304,0.26907
4249.327994,0.26874
4263.306045,0.26946
4277.376359,0.26849
4291.539855,0.26707
4305.79746,0.26675
4320.150116,0.2668
4334.598795,0.26709
4349.144426,0.2675
4363.788008,0.26802
4378.530532,0.26851
4393.373006,0.26845
4408.316449,0.26794
4423.361896,0.26735
4438.510393,0.26708
4453.763023,0.26701
4469.120824,0.26677
4484.584908,0.26641
4500.15638,0.26594
4515.836365,0.26541
4531.626,0.26472
4547.52644,0.26369
4563.538854,0.26249
4579.664452,0.26125
4595.904394,0.26028
4612.259923,0.25945
4628.732277,0.25809
4645.322713,0.25656
4662.032504,0.25506
4678.862943,0.25289
4695.815342,0.25028
4712.891054,0.24795
4730.091384,0.24594
4747.417723,0.24374
4764.871462,0.24153
4782.45401,0.23982
4800.1668,0.23848
4818.011283,0.2372
4835.988934,0.23579
4854.101273,0.23412
4872.349771,0.23243
4890.735994,0.23094
4909.261506,0.22941
4927.927896,0.22752
4946.736778,0.22563
4965.68979,0.22399
4984.788594,0.22228
5004.034903,0.2207
5023.430384,0.21982
5042.976803,0.21946
5062.675928,0.21855
5082.529556,0.21696
5102.539511,0.21559
5122.707649,0.21446
5143.03585,0.21331
5163.526056,0.21262
5184.180157,0.21207
5205.000154,0.21077
5225.988055,0.20936
5247.145898,0.20876
5268.475756,0.20879
5289.979735,0.20909
5311.659976,0.20964
5333.518684,0.21032
5355.558014,0.211
5377.780242,0.21171
5400.187657,0.21207
5422.78258,0.2121
5445.567377,0.21237
5468.544451,0.21288
5491.716246,0.21368
5515.085278,0.2143
5538.654014,0.21402
5562.425058,0.21285
5586.401024,0.21163
5610.584574,0.21089
5634.978416,0.21
5659.585305,0.20911
5684.408043,0.20852
5709.449517,0.2075
5734.712564,0.20629
5760.200171,0.20516
5785.915346,0.20435
5811.861151,0.2037
5838.040701,0.20273
5864.457171,0.20124
5891.11379,0.19875
5918.013883,0.19633
5945.160732,0.19416
5972.557781,0.19297
6000.208507,0.19293
6028.116449,0.19284
6056.285213,0.19196
6084.718472,0.19161
6113.41997,0.192
6142.393557,0.19227
6171.643046,0.19264
6201.172433,0.19345
6230.985758,0.19439
6261.087133,0.19511
6291.480755,0.19584
6322.1709,0.19649
6353.161929,0.1968
6384.458328,0.19698
6416.064553,0.1967
6447.985267,0.19596
6480.225188,0.19507
6512.789128,0.19487
6545.681997,0.19535
6578.908804,0.19557
6612.47466,0.19615
6646.384825,0.19723
6680.644535,0.19846
6715.259268,0.19965
6750.234571,0.20052
6785.576107,0.20064
6821.28966,0.20036
6857.381134,0.20003
6893.856559,0.20029
6930.722144,0.20107
6967.984085,0.20148
7005.648858,0.20158
7043.72303,0.20125
7082.213314,0.20066
7121.126567,0.20003
7160.469802,0.19916
7200.250183,0.19857
7240.47509,0.19813
7281.15191,0.19744
7322.288355,0.19674
7363.892259,0.19618
7405.971636,0.19547
7448.534685,0.19448
7491.589791,0.19375
7535.145539,0.19331
7579.210768,0.19222
7623.794353,0.19097
7668.905555,0.19034
7714.553795,0.1898
7760.74872,0.18926
7807.500211,0.18892
7854.818386,0.18853
7902.713612,0.18768
7951.196573,0.18631
8000.278026,0.18517
8049.969186,0.18481
8100.281485,0.18476
8151.226643,0.18479
8202.816677,0.18504
8255.063908,0.18529
8307.980976,0.1853
8361.580914,0.18514
8415.876885,0.18506
8470.882607,0.18518
8526.612089,0.18497
8583.07971,0.18414
8640.300232,0.1832
8698.288814,0.18282
8757.061026,0.18343
8816.632938,0.18499
8877.020825,0.18752
8938.241648,0.19121
9000.312761,0.19529
9063.252001,0.19824
9127.077709,0.19925
9191.808745,0.19834
9257.464511,0.19654
9324.065051,0.19473
9391.630729,0.19308
9460.182767,0.19211
9529.742923,0.19198
9600.3336,0.19207
9671.977869,0.19178
9744.699495,0.19088
9818.522964,0.18933
9893.473606,0.18738
9969.577237,0.186
10046.86077,0.1856
10125.35186,0.18548
10205.07902,0.18549
10286.0717,0.18569
10368.36026,0.18537
10451.97605,0.18436
10536.95157,0.1829
10623.32001,0.18193
10711.11603,0.18134
10800.37531,0.17983
10891.13475,0.1778
10983.43249,0.1773
11077.30797,0.17937
11172.80199,0.18234
11269.9569,0.1845
11368.81615,0.18488
11469.42513,0.18291
11571.83069,0.1801
11676.0814,0.17773
11782.22758,0.17593
11890.32139,0.17476
12000.41694,0.17402
12112.5705,0.17334
12226.84001,0.17229
12343.28609,0.17114
12461.97152,0.16975
12582.96151,0.16768
12706.32386,0.1655
12832.12902,0.16368
12960.45029,0.16253
13091.36408,0.16219
13224.94941,0.16218
13361.28907,0.16212
13500.46914,0.16205
13642.57932,0.16212
13787.71312,0.16279
13935.96807,0.16405
14087.44596,0.16501
14242.25324,0.16494
14400.50047,0.16414
14562.30382,0.16302
14727.78452,0.16157
14897.06937,0.15933
15070.29108,0.15726
15247.58859,0.15716
15429.10747,0.15828
15615.00054,0.16
15805.42735,0.15985
16000.55605,0.15627
16200.56297,0.15367
16405.63335,0.15471
16615.96195,0.15776
16831.75363,0.16081
17053.22403,0.16299
17280.60061,0.16601
17514.12221,0.16939
17754.04165,0.16994
18000.62552,0.16954
18254.15542,0.16975
18514.92902,0.16984
18783.26128,0.17126
19059.48566,0.17408
19343.95592,0.17629
19637.04612,0.17791
19939.15447,0.18175
20250.70371,0.18408
20572.1434,0.17682
20903.95211,0.16683
21246.63979,0.16468
21600.75039,0.16659
21966.86522,0.16687
22345.60422,0.16416
22737.6323,0.16082
23143.66139,0.1603
23564.45516,0.16173
24000.83388,0.1618
24453.67973,0.15791
24923.94272,0.1396
25412.64804,0.12281
