Database of Origin,University of Winnipeg Spectrophotometer Facility
Sample Description,"HOSERLab master pyroxenes, FTIR data"
Date Added,2016-12-14 03:34:49.929678

Data ID,FTIR_PYX_14         
Sample ID,PYX112
Mineral Name,Orthopyroxene
Grain Size,45-90 um
Viewing Geometry,"i=30, e=0"
Material Class,Inosilicate

Wavelength
2000.56,0.14194981
2001.142,0.14216477
2001.725,0.14233352
2002.307,0.14241204
2002.891,0.14241936
2003.474,0.14242298
2004.058,0.1424784
2004.643,0.14260308
2005.227,0.14279107
2005.812,0.1429989
2006.397,0.14314366
2006.983,0.1431832
2007.569,0.14316613
2008.155,0.14314782
2008.742,0.14312143
2009.329,0.14310659
2009.916,0.14320758
2010.504,0.14347962
2011.092,0.14382368
2011.68,0.1441057
2012.269,0.14430027
2012.858,0.14444793
2013.447,0.14456322
2014.037,0.14465232
2014.627,0.14473182
2015.217,0.14478836
2015.808,0.14482092
2016.399,0.14491056
2016.99,0.14513421
2017.582,0.14543442
2018.174,0.14567804
2018.766,0.14581894
2019.359,0.14591639
2019.952,0.14602306
2020.546,0.14613223
2021.139,0.14620875
2021.733,0.14620472
2022.328,0.14609264
2022.923,0.14593336
2023.518,0.14586456
2024.113,0.14597779
2024.709,0.14622454
2025.305,0.1464753
2025.902,0.14666293
2026.499,0.14682605
2027.096,0.14701237
2027.693,0.1471975
2028.291,0.14733841
2028.89,0.14744758
2029.488,0.14755974
2030.087,0.14768134
2030.686,0.14782517
2031.286,0.14802765
2031.886,0.14828497
2032.486,0.14854571
2033.087,0.14879299
2033.688,0.14904726
2034.289,0.14928129
2034.891,0.14945983
2035.493,0.14963893
2036.096,0.14988428
2036.698,0.15014699
2037.302,0.15035513
2037.905,0.15054641
2038.509,0.15076777
2039.113,0.15095874
2039.718,0.15107029
2040.322,0.15116366
2040.928,0.15126859
2041.533,0.1513098
2042.139,0.15127993
2042.746,0.15130385
2043.352,0.15145968
2043.959,0.15169571
2044.567,0.15195667
2045.174,0.15222076
2045.782,0.15241694
2046.391,0.1525009
2047.0,0.15258821
2047.609,0.15283176
2048.218,0.15320181
2048.828,0.15353066
2049.438,0.15371463
2050.049,0.15375411
2050.66,0.15368751
2051.271,0.15360855
2051.883,0.15365432
2052.495,0.15387856
2053.107,0.15418753
2053.72,0.15445978
2054.333,0.15466615
2054.947,0.1548539
2055.56,0.15507126
2056.175,0.15533463
2056.789,0.15563076
2057.404,0.15593526
2058.019,0.1562268
2058.635,0.15649129
2059.251,0.1567153
2059.867,0.15688171
2060.484,0.15697045
2061.101,0.15698568
2061.718,0.15698744
2062.336,0.15705333
2062.954,0.15718576
2063.573,0.15733039
2064.192,0.15749981
2064.811,0.15777441
2065.431,0.15814271
2066.051,0.15847766
2066.671,0.15869971
2067.292,0.15884089
2067.913,0.15893289
2068.534,0.15896994
2069.156,0.15898052
2069.778,0.15901966
2070.401,0.15910063
2071.024,0.15924859
2071.647,0.15955522
2072.271,0.16004866
2072.895,0.16057359
2073.519,0.16094451
2074.144,0.16114438
2074.769,0.16125027
2075.395,0.16127335
2076.02,0.16122776
2076.647,0.16123858
2077.273,0.16142032
2077.9,0.16173315
2078.528,0.16208
2079.155,0.1624331
2079.784,0.16277213
2080.412,0.16303257
2081.041,0.16322458
2081.67,0.16345962
2082.3,0.16378335
2082.93,0.16410849
2083.56,0.16435886
2084.191,0.16454247
2084.822,0.16467019
2085.454,0.16474935
2086.085,0.16487495
2086.718,0.16515751
2087.35,0.1655472
2087.983,0.16587659
2088.617,0.16608743
2089.251,0.16626601
2089.885,0.16647724
2090.519,0.1667062
2091.154,0.16696316
2091.789,0.16730031
2092.425,0.16771107
2093.061,0.16810943
2093.697,0.16842839
2094.334,0.16866184
2094.971,0.16881902
2095.609,0.16892201
2096.247,0.16905339
2096.885,0.1692989
2097.524,0.16962588
2098.163,0.16990956
2098.803,0.17009511
2099.443,0.17024784
2100.083,0.17043449
2100.723,0.17064924
2101.364,0.17087684
2102.006,0.1711346
2102.648,0.17140721
2103.29,0.17163415
2103.932,0.17179805
2104.575,0.17193251
2105.219,0.17203653
2105.862,0.17210011
2106.506,0.17219283
2107.151,0.17238588
2107.796,0.17261115
2108.441,0.1727407
2109.087,0.17278183
2109.733,0.17285248
2110.379,0.17300173
2111.026,0.17318418
2111.673,0.17335955
2112.321,0.17349675
2112.969,0.17355449
2113.617,0.17355595
2114.266,0.17361056
2114.915,0.17378761
2115.565,0.17404926
2116.215,0.17433871
2116.865,0.17464826
2117.516,0.1749671
2118.167,0.1752512
2118.819,0.17546733
2119.471,0.17562756
2120.123,0.17578297
2120.776,0.17600329
2121.429,0.17634126
2122.082,0.17679682
2122.736,0.17731781
2123.391,0.17781682
2124.045,0.1781964
2124.7,0.17842986
2125.356,0.17861847
2126.012,0.17889299
2126.668,0.1792786
2127.325,0.17972956
2127.982,0.18021335
2128.64,0.18066084
2129.297,0.18094729
2129.956,0.18104774
2130.614,0.18109321
2131.274,0.18118122
2131.933,0.18128992
2132.593,0.18143659
2133.253,0.18170294
2133.914,0.18204916
2134.575,0.18233003
2135.237,0.18252721
2135.899,0.18274958
2136.561,0.1830298
2137.224,0.1833347
2137.887,0.18370119
2138.55,0.18414584
2139.214,0.18454401
2139.879,0.18479635
2140.544,0.18499718
2141.209,0.18527304
2141.874,0.18561318
2142.54,0.18597727
2143.207,0.18638187
2143.873,0.18677796
2144.541,0.18705489
2145.208,0.18723747
2145.876,0.18748467
2146.545,0.18785769
2147.214,0.18827616
2147.883,0.18868336
2148.553,0.18908589
2149.223,0.18945335
2149.893,0.18973873
2150.564,0.189972
2151.235,0.19022343
2151.907,0.19051405
2152.579,0.19084072
2153.252,0.19121754
2153.925,0.19163013
2154.598,0.19202123
2155.272,0.19236071
2155.946,0.19266812
2156.621,0.19295972
2157.296,0.19322863
2157.972,0.19348872
2158.647,0.19377958
2159.324,0.19413575
2160.001,0.19457268
2160.678,0.1950648
2161.355,0.19553461
2162.033,0.19591962
2162.712,0.19624686
2163.39,0.19658688
2164.07,0.19695198
2164.749,0.19729703
2165.429,0.19759835
2166.11,0.19787136
2166.791,0.19813842
2167.472,0.19843757
2168.154,0.19882595
2168.836,0.19931262
2169.519,0.19983356
2170.202,0.20032583
2170.885,0.20075744
2171.569,0.20107532
2172.254,0.20123548
2172.938,0.20132151
2173.624,0.20150674
2174.309,0.2018644
2174.995,0.2023275
2175.682,0.20282574
2176.368,0.20333242
2177.056,0.20378352
2177.743,0.20410454
2178.432,0.20432272
2179.12,0.20452673
2179.809,0.20474587
2180.499,0.20498462
2181.189,0.20530423
2181.879,0.205757
2182.57,0.20630167
2183.261,0.20686289
2183.952,0.20739917
2184.644,0.20785379
2185.337,0.20815673
2186.03,0.20833932
2186.723,0.20853766
2187.417,0.2088364
2188.111,0.20919986
2188.806,0.20957316
2189.501,0.20995081
2190.196,0.21033161
2190.892,0.21069523
2191.589,0.21103792
2192.285,0.21136703
2192.983,0.21167137
2193.68,0.21194991
2194.379,0.21225498
2195.077,0.21265245
2195.776,0.21313479
2196.476,0.21360619
2197.175,0.21397137
2197.876,0.21422931
2198.577,0.21446103
2199.278,0.21473635
2199.979,0.21504934
2200.682,0.21535001
2201.384,0.21560631
2202.087,0.21583283
2202.79,0.21608261
2203.494,0.2164018
2204.199,0.21677097
2204.903,0.21712438
2205.609,0.21744735
2206.314,0.21781298
2207.02,0.21828417
2207.727,0.21882012
2208.434,0.21930532
2209.141,0.21964518
2209.849,0.21983787
2210.557,0.21998406
2211.266,0.22021739
2211.975,0.22059427
2212.685,0.22106495
2213.395,0.22154754
2214.106,0.2219933
2214.817,0.22238437
2215.528,0.22272006
2216.24,0.22301429
2216.952,0.22329023
2217.665,0.22359598
2218.379,0.22399275
2219.092,0.22446479
2219.806,0.22488451
2220.521,0.22514699
2221.236,0.22528476
2221.952,0.22538234
2222.668,0.22546822
2223.384,0.22556502
2224.101,0.22572555
2224.818,0.22595437
2225.536,0.22621043
2226.254,0.22650904
2226.973,0.22688433
2227.692,0.22728142
2228.412,0.22763669
2229.132,0.22799318
2229.853,0.22839048
2230.574,0.22876055
2231.295,0.22906389
2232.017,0.22937152
2232.74,0.22970794
2233.462,0.23000237
2234.186,0.23025292
2234.91,0.23053399
2235.634,0.23082433
2236.359,0.23104626
2237.084,0.23124239
2237.809,0.23150888
2238.536,0.23183907
2239.262,0.23220458
2239.989,0.23264684
2240.717,0.23314994
2241.445,0.23359348
2242.173,0.23392502
2242.902,0.23418653
2243.631,0.2343686
2244.361,0.23445952
2245.092,0.23458313
2245.822,0.2348565
2246.554,0.23520348
2247.285,0.23550531
2248.017,0.23578882
2248.75,0.23610046
2249.483,0.23639708
2250.217,0.23668516
2250.951,0.23705601
2251.686,0.23751037
2252.421,0.23796149
2253.156,0.23841615
2253.892,0.238932
2254.628,0.2394538
2255.365,0.23989109
2256.103,0.2402477
2256.841,0.24052326
2257.579,0.24065571
2258.318,0.24069843
2259.057,0.24084487
2259.797,0.24116721
2260.537,0.24153996
2261.278,0.24188288
2262.019,0.2422601
2262.761,0.24270313
2263.503,0.24314206
2264.246,0.24352287
2264.989,0.24384108
2265.732,0.24409027
2266.477,0.24430056
2267.221,0.24456347
2267.966,0.24491536
2268.712,0.24528996
2269.458,0.24564262
2270.204,0.246016
2270.951,0.24643282
2271.699,0.24683763
2272.447,0.24717423
2273.195,0.24744109
2273.944,0.24766454
2274.694,0.24788768
2275.444,0.24817322
2276.194,0.24854643
2276.945,0.24893752
2277.696,0.24923665
2278.448,0.24941543
2279.201,0.24955898
2279.954,0.24977363
2280.707,0.25008038
2281.461,0.25039963
2282.215,0.25063245
2282.97,0.25076092
2283.725,0.250868
2284.481,0.25105123
2285.237,0.2513276
2285.994,0.25163332
2286.752,0.25190485
2287.509,0.25212817
2288.268,0.25231324
2289.026,0.25246236
2289.786,0.25258537
2290.545,0.2527195
2291.306,0.25291336
2292.067,0.25319982
2292.828,0.25357408
2293.59,0.25397431
2294.352,0.2543117
2295.115,0.25454689
2295.878,0.25471333
2296.642,0.25486177
2297.406,0.25502958
2298.171,0.25525929
2298.936,0.2555719
2299.702,0.25591143
2300.468,0.25619967
2301.235,0.25643651
2302.002,0.25667437
2302.77,0.25691909
2303.539,0.25714175
2304.307,0.25735135
2305.077,0.25757136
2305.847,0.25778105
2306.617,0.25794752
2307.388,0.25807818
2308.159,0.25819182
2308.931,0.25828772
2309.703,0.25838354
2310.476,0.25852633
2311.25,0.25873322
2312.024,0.25897474
2312.798,0.25923946
2313.573,0.25954955
2314.348,0.25989854
2315.124,0.26022796
2315.901,0.26050099
2316.678,0.26074839
2317.455,0.26100774
2318.234,0.2612612
2319.012,0.26148271
2319.791,0.26170586
2320.571,0.26198532
2321.351,0.26231105
2322.131,0.26263114
2322.913,0.26293337
2323.694,0.26324183
2324.476,0.2635703
2325.259,0.26393858
2326.042,0.26437281
2326.826,0.26482849
2327.61,0.26519723
2328.395,0.26545505
2329.18,0.26570894
2329.966,0.26604999
2330.753,0.26646383
2331.54,0.26692165
2332.327,0.26742419
2333.115,0.26793107
2333.903,0.26836398
2334.692,0.26870679
2335.482,0.26900772
2336.272,0.26929721
2337.062,0.26958498
2337.854,0.2699008
2338.645,0.27027078
2339.437,0.27068677
2340.23,0.27113196
2341.023,0.27159117
2341.817,0.27202569
2342.611,0.27238232
2343.406,0.27264021
2344.201,0.27282992
2344.997,0.27302225
2345.794,0.27329113
2346.591,0.27365864
2347.388,0.27409501
2348.186,0.27458271
2348.985,0.27510701
2349.784,0.27557991
2350.583,0.27590732
2351.384,0.27613745
2352.184,0.2764055
2352.986,0.27675936
2353.787,0.27717829
2354.59,0.27766307
2355.393,0.27814427
2356.196,0.27845207
2357.0,0.27856131
2357.804,0.27869309
2358.609,0.27901062
2359.415,0.2794348
2360.221,0.27987144
2361.028,0.28033833
2361.835,0.28077768
2362.643,0.28105404
2363.451,0.28120197
2364.26,0.281378
2365.069,0.28158605
2365.879,0.28174096
2366.69,0.28192091
2367.501,0.28225333
2368.312,0.28266435
2369.125,0.28300164
2369.937,0.28325298
2370.751,0.28344079
2371.564,0.28352118
2372.379,0.2835487
2373.194,0.28370003
2374.009,0.28400771
2374.825,0.28430904
2375.642,0.28452384
2376.459,0.28473908
2377.276,0.28499178
2378.095,0.28521386
2378.913,0.28538766
2379.733,0.28555126
2380.553,0.28568313
2381.373,0.28575078
2382.194,0.28581412
2383.016,0.28595584
2383.838,0.28617338
2384.661,0.28642549
2385.484,0.28670538
2386.308,0.28701056
2387.132,0.28731626
2387.957,0.28761151
2388.783,0.28790964
2389.609,0.28821093
2390.435,0.28849129
2391.263,0.28872376
2392.09,0.28889846
2392.919,0.28904484
2393.748,0.289231
2394.577,0.28951245
2395.407,0.28988047
2396.238,0.29028384
2397.069,0.29067917
2397.901,0.29103123
2398.733,0.29131444
2399.566,0.29155337
2400.399,0.2918121
2401.233,0.29210315
2402.068,0.29237632
2402.903,0.29261672
2403.739,0.29288486
2404.575,0.29322575
2405.412,0.29361471
2406.25,0.29402184
2407.088,0.29443723
2407.926,0.29481534
2408.766,0.29509962
2409.606,0.29532043
2410.446,0.2955601
2411.287,0.29581842
2412.128,0.29603636
2412.971,0.2962343
2413.813,0.29647988
2414.657,0.2967526
2415.5,0.29699448
2416.345,0.29724277
2417.19,0.29755311
2418.036,0.29786052
2418.882,0.29807301
2419.729,0.29822643
2420.576,0.29839851
2421.424,0.2985849
2422.272,0.29878692
2423.122,0.29907375
2423.971,0.29943241
2424.822,0.29971256
2425.673,0.299836
2426.524,0.29990682
2427.376,0.30003059
2428.229,0.30019054
2429.082,0.30036934
2429.936,0.300612
2430.791,0.30090338
2431.646,0.30114559
2432.501,0.30131633
2433.358,0.30150103
2434.214,0.30172883
2435.072,0.30192633
2435.93,0.30206648
2436.789,0.3022098
2437.648,0.30236827
2438.508,0.30247926
2439.368,0.30255928
2440.229,0.30272158
2441.091,0.302995
2441.953,0.30328504
2442.816,0.30354341
2443.679,0.3037989
2444.543,0.30400533
2445.408,0.30408274
2446.273,0.30412297
2447.139,0.30430711
2448.006,0.30461637
2448.873,0.30487346
2449.74,0.30503602
2450.609,0.3051927
2451.478,0.30534778
2452.347,0.3054808
2453.217,0.30568472
2454.088,0.30598612
2454.959,0.30620187
2455.831,0.30622076
2456.704,0.30619705
2457.577,0.30627264
2458.451,0.30638556
2459.325,0.30650297
2460.2,0.30671424
2461.076,0.30698828
2461.952,0.30718077
2462.829,0.3073258
2463.707,0.30758566
2464.585,0.30793338
2465.464,0.3082007
2466.343,0.3083601
2467.223,0.30849351
2468.104,0.3086226
2468.985,0.30878454
2469.867,0.30907671
2470.749,0.30946947
2471.632,0.30979051
2472.516,0.30997746
2473.4,0.31011819
2474.285,0.31025349
2475.171,0.31036998
2476.057,0.31051346
2476.944,0.31069871
2477.832,0.31081913
2478.72,0.31080792
2479.608,0.31075597
2480.498,0.31078259
2481.388,0.31094043
2482.278,0.31124891
2483.17,0.3116459
2484.062,0.31196587
2484.954,0.31212572
2485.847,0.31222308
2486.741,0.31234313
2487.636,0.31247082
2488.531,0.31263517
2489.427,0.31289673
2490.323,0.3131632
2491.22,0.31328137
2492.118,0.31328238
2493.016,0.31329752
2493.915,0.31334398
2494.814,0.31341351
2495.715,0.31358526
2496.615,0.31384
2497.517,0.31400813
2498.419,0.31405848
2499.322,0.31416318
2500.225,0.31436653
2501.129,0.31452068
2502.034,0.31461068
2502.939,0.31478988
2503.845,0.31505252
2504.752,0.31523673
2505.659,0.31534139
2506.567,0.31549207
2507.476,0.31565025
2508.385,0.3157115
2509.295,0.31577219
2510.206,0.31595973
2511.117,0.31615731
2512.029,0.31622514
2512.942,0.3162888
2513.855,0.31648686
2514.769,0.31668277
2515.683,0.31675979
2516.598,0.31687875
2517.514,0.31712815
2518.431,0.31729782
2519.348,0.31731022
2520.266,0.31742078
2521.184,0.31771302
2522.103,0.31788274
2523.023,0.31778998
2523.944,0.31768819
2524.865,0.31769977
2525.787,0.31766827
2526.709,0.3176734
2527.632,0.31798865
2528.556,0.31848156
2529.48,0.31874955
2530.406,0.31884009
2531.331,0.31910674
2532.258,0.31948606
2533.185,0.31967277
2534.113,0.3197786
2535.041,0.32001246
2535.971,0.32013145
2536.9,0.31995166
2537.831,0.31988365
2538.762,0.32022624
2539.694,0.32061462
2540.627,0.32070949
2541.56,0.32077103
2542.494,0.32102188
2543.428,0.32116868
2544.364,0.32110124
2545.3,0.32118556
2546.236,0.32146929
2547.174,0.32153714
2548.112,0.32143121
2549.05,0.32172294
2549.99,0.32241617
2550.93,0.32280365
2551.87,0.32264327
2552.812,0.32244189
2553.754,0.32237044
2554.697,0.32207934
2555.64,0.32168616
2556.585,0.32172658
2557.529,0.3221922
2558.475,0.3226208
2559.421,0.32310176
2560.368,0.32402642
2561.316,0.32486411
2562.264,0.32462144
2563.213,0.32369292
2564.163,0.323189
2565.113,0.32311571
2566.065,0.32300702
2567.016,0.32319737
2567.969,0.32393957
2568.922,0.32444816
2569.876,0.32419845
2570.831,0.32412625
2571.786,0.32479706
2572.742,0.32523013
2573.699,0.32481459
2574.656,0.32452458
2575.615,0.32474656
2576.573,0.32450958
2577.533,0.32379425
2578.493,0.32385914
2579.454,0.32476179
2580.416,0.32534087
2581.378,0.3255756
2582.342,0.32638803
2583.305,0.3272555
2584.27,0.3269985
2585.235,0.32648919
2586.201,0.32690727
2587.168,0.32732183
2588.135,0.32656009
2589.103,0.32572113
2590.072,0.32603708
2591.042,0.32710376
2592.012,0.32859166
2592.983,0.33119561
2593.955,0.33397031
2594.927,0.33359728
2595.9,0.33019552
2596.874,0.32763333
2597.849,0.32689135
2598.824,0.32667186
2599.8,0.32668204
2600.777,0.32745256
2601.755,0.32853032
2602.733,0.32900966
2603.712,0.32927311
2604.692,0.3298557
2605.672,0.32987191
2606.653,0.32882009
2607.635,0.32787547
2608.618,0.32764491
2609.601,0.32733514
2610.585,0.32665552
2611.57,0.32641308
2612.556,0.32697422
2613.542,0.32786385
2614.529,0.3288449
2615.517,0.32995845
2616.505,0.33075765
2617.495,0.33082966
2618.485,0.33058478
2619.475,0.33036264
2620.467,0.3297587
2621.459,0.32871207
2622.452,0.32796361
2623.446,0.3280155
2624.44,0.32862871
2625.435,0.32937252
2626.431,0.33004577
2627.428,0.33064203
2628.426,0.3312009
2629.424,0.33162864
2630.423,0.33161954
2631.423,0.33100849
2632.423,0.33013649
2633.424,0.3294308
2634.426,0.32898835
2635.429,0.32874179
2636.432,0.32868844
2637.437,0.32879587
2638.442,0.3289637
2639.447,0.32911549
2640.454,0.32920549
2641.461,0.32924584
2642.469,0.32939406
2643.478,0.32979675
2644.488,0.33026996
2645.498,0.33045129
2646.509,0.33027719
2647.521,0.33001371
2648.534,0.32988685
2649.547,0.33000509
2650.561,0.33040041
2651.576,0.3308944
2652.592,0.33120031
2653.609,0.33126514
2654.626,0.33119881
2655.644,0.33100338
2656.663,0.33076986
2657.682,0.33073908
2658.703,0.33085801
2659.724,0.33077044
2660.746,0.33058052
2661.768,0.33095433
2662.792,0.33218157
2663.816,0.3338501
2664.841,0.33536671
2665.867,0.33624652
2666.894,0.33635513
2667.921,0.33626472
2668.949,0.33657529
2669.978,0.33662985
2671.008,0.33514734
2672.038,0.3326412
2673.07,0.33105581
2674.102,0.33110967
2675.135,0.33201589
2676.168,0.33269755
2677.203,0.33236935
2678.238,0.33055782
2679.274,0.32768911
2680.311,0.32501429
2681.349,0.32316462
2682.387,0.32162475
2683.426,0.31975084
2684.467,0.31760283
2685.507,0.31535585
2686.549,0.31272871
2687.591,0.30965063
2688.635,0.30665168
2689.679,0.30418674
2690.724,0.30237247
2691.769,0.30132064
2692.816,0.30089067
2693.863,0.30010851
2694.911,0.297911
2695.96,0.2947329
2697.01,0.29193549
2698.06,0.29008921
2699.112,0.28897923
2700.164,0.28821869
2701.217,0.28725417
2702.27,0.28554018
2703.325,0.28318821
2704.38,0.28087438
2705.437,0.27907155
2706.494,0.27794698
2707.552,0.27767223
2708.61,0.27799246
2709.67,0.27747078
2710.73,0.27428129
2711.791,0.26839518
2712.853,0.26149259
2713.916,0.25456065
2714.98,0.24755177
2716.044,0.24070074
2717.109,0.23490853
2718.175,0.23095672
2719.242,0.22877714
2720.31,0.22746917
2721.379,0.22601217
2722.448,0.22398644
2723.518,0.22143518
2724.589,0.21821127
2725.661,0.21378881
2726.734,0.20795952
2727.808,0.20139982
2728.882,0.19515681
2729.958,0.18998389
2731.034,0.18629577
2732.111,0.18431727
2733.188,0.18378046
2734.267,0.18362546
2735.347,0.18277007
2736.427,0.18137477
2737.508,0.18040267
2738.59,0.18006754
2739.673,0.17935361
2740.757,0.17714991
2741.841,0.17362923
2742.927,0.16998584
2744.013,0.16722323
2745.1,0.1657885
2746.188,0.16548351
2747.277,0.16557318
2748.367,0.1654793
2749.457,0.16524492
2750.549,0.16507633
2751.641,0.16497156
2752.734,0.16497767
2753.828,0.16516955
2754.923,0.16510868
2756.019,0.16414034
2757.115,0.16264769
2758.213,0.16159978
2759.311,0.16115905
2760.41,0.16095115
2761.51,0.16082409
2762.611,0.16074354
2763.713,0.16048173
2764.816,0.1599946
2765.919,0.15969049
2767.024,0.15978703
2768.129,0.16003929
2769.235,0.16025957
2770.342,0.16056886
2771.45,0.16093198
2772.559,0.16110303
2773.669,0.16112629
2774.779,0.16125157
2775.891,0.16143846
2777.003,0.16147818
2778.116,0.16143257
2779.23,0.16149923
2780.345,0.1615915
2781.461,0.16153057
2782.578,0.16144606
2783.696,0.16151958
2784.814,0.1616082
2785.934,0.16148541
2787.054,0.16122243
2788.175,0.16105103
2789.297,0.16101541
2790.42,0.16102437
2791.544,0.16103967
2792.669,0.160992
2793.795,0.16078319
2794.922,0.16047496
2796.049,0.16027327
2797.178,0.1602195
2798.307,0.16011401
2799.437,0.15978391
2800.568,0.15921693
2801.7,0.15840996
2802.833,0.15736856
2803.967,0.15635696
2805.102,0.15580738
2806.238,0.15578509
2807.374,0.15595891
2808.512,0.15607364
2809.65,0.15612441
2810.789,0.15615173
2811.93,0.15614408
2813.071,0.15615792
2814.213,0.15630353
2815.356,0.15656925
2816.5,0.15685502
2817.645,0.15713099
2818.791,0.15739523
2819.937,0.1575741
2821.085,0.1576625
2822.233,0.15782164
2823.383,0.15813241
2824.533,0.15845698
2825.685,0.15866898
2826.837,0.15876542
2827.99,0.15871719
2829.144,0.15846283
2830.299,0.15809585
2831.455,0.15778965
2832.612,0.15753845
2833.77,0.15721031
2834.929,0.15679659
2836.089,0.15636531
2837.25,0.1558819
2838.411,0.15532119
2839.574,0.15481792
2840.737,0.15449638
2841.902,0.15432204
2843.067,0.15423017
2844.234,0.15418352
2845.401,0.15405776
2846.569,0.15374945
2847.739,0.15341433
2848.909,0.15331456
2850.08,0.15344866
2851.252,0.15357982
2852.425,0.15357097
2853.599,0.15344999
2854.774,0.15327944
2855.95,0.15318636
2857.127,0.15337229
2858.305,0.15388568
2859.484,0.15451365
2860.664,0.15501273
2861.844,0.15531604
2863.026,0.15545191
2864.209,0.15544862
2865.392,0.15538511
2866.577,0.15537258
2867.763,0.15542332
2868.949,0.15545134
2870.137,0.15542217
2871.325,0.15539625
2872.515,0.15541343
2873.705,0.15543364
2874.897,0.15541417
2876.089,0.15537015
2877.283,0.15532938
2878.477,0.15529033
2879.673,0.15525356
2880.869,0.15523533
2882.066,0.15520763
2883.265,0.15507628
2884.464,0.15482043
2885.664,0.15460846
2886.866,0.15465733
2888.068,0.15499234
2889.271,0.15543144
2890.476,0.15574604
2891.681,0.15574909
2892.887,0.15535547
2894.095,0.15469718
2895.303,0.15407197
2896.512,0.15365132
2897.723,0.15334285
2898.934,0.15302225
2900.146,0.15273595
2901.36,0.15257095
2902.574,0.15248973
2903.789,0.1524222
2905.006,0.15237087
2906.223,0.15232814
2907.441,0.15224311
2908.661,0.15213063
2909.881,0.15206235
2911.103,0.152034
2912.325,0.15201382
2913.549,0.15211044
2914.773,0.15246956
2915.999,0.15298193
2917.225,0.15331329
2918.453,0.1532752
2919.681,0.15297846
2920.911,0.15260533
2922.142,0.15222281
2923.373,0.15184135
2924.606,0.15148364
2925.84,0.15116183
2927.075,0.1509076
2928.31,0.15081756
2929.547,0.15093053
2930.785,0.1511142
2932.024,0.15122586
2933.264,0.15133204
2934.505,0.15160394
2935.747,0.15204593
2936.99,0.15248569
2938.234,0.15278591
2939.479,0.15291892
2940.726,0.15291305
2941.973,0.15288795
2943.221,0.15308561
2944.471,0.15369076
2945.721,0.15461065
2946.973,0.1555138
2948.225,0.15606604
2949.479,0.15614227
2950.733,0.15591592
2951.989,0.15576051
2953.246,0.15595451
2954.504,0.15642232
2955.763,0.15681856
2957.023,0.15688215
2958.284,0.15665987
2959.546,0.15640648
2960.809,0.15634052
2962.073,0.15650623
2963.339,0.15682504
2964.605,0.15721468
2965.873,0.15761631
2967.141,0.15793945
2968.411,0.15809948
2969.681,0.15815908
2970.953,0.158347
2972.226,0.1588748
2973.5,0.15975516
2974.775,0.16076188
2976.051,0.16151297
2977.328,0.16169186
2978.607,0.16133419
2979.886,0.16084502
2981.167,0.16061761
2982.448,0.16070019
2983.731,0.16091051
2985.015,0.16113217
2986.3,0.1613808
2987.586,0.16172637
2988.873,0.16225078
2990.161,0.16293728
2991.45,0.16354338
2992.74,0.16376412
2994.032,0.16360645
2995.324,0.16341843
2996.618,0.16348804
2997.913,0.16380706
2999.209,0.16426048
3000.506,0.16479896
3001.804,0.16533267
3003.103,0.16569594
3004.404,0.16583604
3005.705,0.16586628
3007.008,0.16587809
3008.312,0.16588529
3009.616,0.165983
3010.922,0.16632509
3012.23,0.16687853
3013.538,0.16740364
3014.847,0.16773212
3016.158,0.16788563
3017.469,0.1679267
3018.782,0.16791202
3020.096,0.16797634
3021.411,0.16822642
3022.727,0.16856955
3024.044,0.16886438
3025.363,0.16918863
3026.683,0.16974991
3028.003,0.17060625
3029.325,0.17166242
3030.648,0.17278306
3031.972,0.17369778
3033.298,0.17400629
3034.624,0.17357186
3035.952,0.17278152
3037.281,0.17219241
3038.611,0.17205532
3039.942,0.17231665
3041.274,0.17284888
3042.607,0.17347783
3043.942,0.17397628
3045.278,0.17422783
3046.615,0.17429673
3047.953,0.17426172
3049.292,0.17413059
3050.632,0.17395946
3051.974,0.17387868
3053.317,0.17394533
3054.661,0.17410539
3056.006,0.1743238
3057.352,0.1746337
3058.7,0.17505682
3060.048,0.17557802
3061.398,0.17619477
3062.749,0.17688773
3064.101,0.17752242
3065.455,0.17786894
3066.809,0.17779483
3068.165,0.17741387
3069.522,0.17699594
3070.88,0.17674504
3072.239,0.17672102
3073.6,0.1769312
3074.962,0.17736024
3076.325,0.17790328
3077.689,0.1784045
3079.054,0.17877903
3080.421,0.17901247
3081.788,0.17909729
3083.157,0.1791129
3084.527,0.17927575
3085.899,0.17970938
3087.271,0.1802382
3088.645,0.18058834
3090.02,0.18069999
3091.396,0.18068669
3092.774,0.18062174
3094.153,0.18055906
3095.532,0.18064004
3096.914,0.180981
3098.296,0.18153059
3099.679,0.18213162
3101.064,0.18260485
3102.45,0.182757
3103.837,0.18251824
3105.226,0.18212322
3106.616,0.18193503
3108.007,0.18204988
3109.399,0.18227969
3110.792,0.1825011
3112.187,0.18277431
3113.583,0.18312349
3114.98,0.18345886
3116.378,0.18374209
3117.778,0.18403299
3119.179,0.18436238
3120.581,0.18471265
3121.985,0.18508723
3123.389,0.1854648
3124.795,0.1857546
3126.202,0.18592396
3127.611,0.18608893
3129.02,0.18637254
3130.431,0.18675162
3131.844,0.18712894
3133.257,0.1874671
3134.672,0.18777359
3136.088,0.18804077
3137.505,0.18827917
3138.924,0.18854743
3140.344,0.18889078
3141.765,0.18928466
3143.187,0.18966881
3144.611,0.19000216
3146.036,0.19028066
3147.462,0.19053838
3148.89,0.19083515
3150.319,0.19122454
3151.749,0.19171534
3153.18,0.19226036
3154.613,0.19277891
3156.047,0.19321186
3157.482,0.1935629
3158.919,0.19387404
3160.357,0.19417528
3161.796,0.19448681
3163.236,0.19483428
3164.678,0.19521581
3166.121,0.19558638
3167.566,0.19591986
3169.011,0.19623947
3170.458,0.19655686
3171.907,0.19684923
3173.356,0.19714398
3174.807,0.19755332
3176.26,0.19817821
3177.713,0.19901535
3179.168,0.19993878
3180.624,0.20070453
3182.082,0.20104284
3183.541,0.20088875
3185.001,0.2004987
3186.463,0.20023099
3187.926,0.20026412
3189.39,0.20061038
3190.856,0.20125302
3192.323,0.20208842
3193.791,0.20283628
3195.26,0.20321256
3196.731,0.20318285
3198.204,0.20296175
3199.677,0.20282468
3201.152,0.20295597
3202.629,0.20334581
3204.106,0.20377119
3205.585,0.20398956
3207.066,0.20401744
3208.548,0.20413876
3210.031,0.20462445
3211.515,0.2055333
3213.001,0.20673805
3214.488,0.20798683
3215.977,0.20894097
3217.467,0.20932567
3218.958,0.20913093
3220.451,0.20862821
3221.945,0.20818265
3223.441,0.20805232
3224.938,0.20825814
3226.436,0.20856129
3227.936,0.20865186
3229.437,0.20848098
3230.939,0.20833398
3232.443,0.20848353
3233.948,0.20886045
3235.455,0.20917408
3236.963,0.20925743
3238.472,0.2091927
3239.983,0.20919362
3241.495,0.20945662
3243.008,0.21001947
3244.523,0.21069107
3246.04,0.21122312
3247.558,0.21159231
3249.077,0.21199494
3250.598,0.21256246
3252.12,0.21324783
3253.643,0.21397898
3255.168,0.2146879
3256.694,0.21517426
3258.222,0.21517401
3259.751,0.21464605
3261.282,0.21385558
3262.814,0.21316893
3264.347,0.21286714
3265.882,0.21306888
3267.418,0.21364881
3268.956,0.21426443
3270.495,0.21459668
3272.036,0.21456623
3273.578,0.21429395
3275.122,0.21397382
3276.667,0.21382503
3278.213,0.21399754
3279.761,0.21442855
3281.31,0.21490159
3282.861,0.21528402
3284.413,0.21560244
3285.967,0.21588893
3287.522,0.21610773
3289.079,0.21626638
3290.637,0.21648586
3292.196,0.2169048
3293.757,0.21753087
3295.32,0.21816804
3296.884,0.2185058
3298.449,0.21837358
3300.016,0.21795314
3301.585,0.21765723
3303.155,0.21774952
3304.726,0.21812065
3306.299,0.21843864
3307.873,0.21846928
3309.449,0.21826841
3311.026,0.21809997
3312.605,0.21816204
3314.185,0.21840332
3315.767,0.21863082
3317.351,0.21875322
3318.936,0.2188551
3320.522,0.21909259
3322.11,0.21959807
3323.699,0.2204254
3325.29,0.22147566
3326.882,0.22249367
3328.476,0.22319093
3330.072,0.22336414
3331.669,0.22295499
3333.267,0.22212745
3334.867,0.22126751
3336.469,0.22072793
3338.072,0.22055087
3339.676,0.22056318
3341.282,0.22068461
3342.89,0.22095712
3344.499,0.22134254
3346.11,0.22171586
3347.722,0.22203614
3349.336,0.222323
3350.952,0.22249444
3352.569,0.22241518
3354.187,0.2220776
3355.807,0.22160447
3357.429,0.22115337
3359.052,0.22092162
3360.677,0.22109433
3362.303,0.2216361
3363.931,0.22224985
3365.56,0.2226561
3367.191,0.22280765
3368.824,0.22277931
3370.458,0.22261795
3372.093,0.22237527
3373.731,0.22212528
3375.37,0.22188817
3377.01,0.22165624
3378.652,0.22149815
3380.296,0.22150536
3381.941,0.2216616
3383.588,0.22188494
3385.236,0.22214761
3386.886,0.22243269
3388.538,0.22265945
3390.191,0.22278653
3391.846,0.22292884
3393.502,0.22324206
3395.16,0.22372168
3396.82,0.22420458
3398.481,0.22455647
3400.144,0.22480667
3401.809,0.22509573
3403.475,0.22549281
3405.143,0.22586329
3406.812,0.2259594
3408.483,0.2256594
3410.156,0.22509916
3411.83,0.2245503
3413.506,0.22421052
3415.183,0.22411293
3416.862,0.22420779
3418.543,0.22448959
3420.226,0.22500343
3421.91,0.22569449
3423.596,0.22632132
3425.283,0.2266298
3426.972,0.22660834
3428.663,0.22648061
3430.355,0.22646444
3432.049,0.22663482
3433.745,0.22700176
3435.442,0.22758537
3437.141,0.22839669
3438.842,0.22939567
3440.545,0.23043445
3442.249,0.231207
3443.954,0.23137035
3445.662,0.23084044
3447.371,0.22993375
3449.082,0.22912328
3450.794,0.22868121
3452.509,0.22859445
3454.224,0.22871511
3455.942,0.2288817
3457.661,0.22898469
3459.382,0.22904236
3461.105,0.22916805
3462.829,0.22938058
3464.556,0.22951684
3466.283,0.22942362
3468.013,0.22915005
3469.744,0.22885717
3471.477,0.22862956
3473.212,0.22847383
3474.948,0.22840239
3476.686,0.22840291
3478.426,0.22841177
3480.168,0.22841166
3481.911,0.22847808
3483.656,0.22868913
3485.403,0.22910024
3487.152,0.22978849
3488.902,0.23071984
3490.654,0.23156368
3492.408,0.23188669
3494.164,0.23160393
3495.921,0.23104952
3497.68,0.2305803
3499.441,0.23030958
3501.204,0.23022124
3502.968,0.23030276
3504.734,0.2305023
3506.502,0.23072184
3508.272,0.23089632
3510.043,0.23099563
3511.817,0.23099665
3513.592,0.2309496
3515.368,0.23099077
3517.147,0.23120073
3518.927,0.23152028
3520.71,0.23184464
3522.494,0.23209584
3524.28,0.23219891
3526.067,0.23215001
3527.857,0.2321518
3529.648,0.23251257
3531.441,0.23330945
3533.236,0.23423088
3535.032,0.23481923
3536.831,0.23484143
3538.631,0.23442969
3540.433,0.23392069
3542.237,0.23358398
3544.043,0.23347572
3545.851,0.23350388
3547.66,0.23356487
3549.471,0.23360611
3551.284,0.23362104
3553.099,0.2336385
3554.916,0.23369258
3556.735,0.23378658
3558.555,0.23390019
3560.378,0.23402333
3562.202,0.23415565
3564.028,0.23430107
3565.856,0.2344933
3567.686,0.2347761
3569.518,0.23510347
3571.351,0.23532162
3573.187,0.23531893
3575.024,0.23515005
3576.863,0.23497558
3578.704,0.23494538
3580.547,0.23515972
3582.392,0.23562404
3584.239,0.23616445
3586.088,0.23650002
3587.938,0.23649638
3589.791,0.2363048
3591.645,0.23619798
3593.501,0.23632052
3595.359,0.23660265
3597.22,0.23683675
3599.082,0.23682346
3600.946,0.23653307
3602.811,0.23614309
3604.679,0.23585681
3606.549,0.23572134
3608.421,0.23570014
3610.294,0.23583762
3612.17,0.23619645
3614.047,0.23667184
3615.926,0.23702084
3617.808,0.23709229
3619.691,0.23694033
3621.576,0.23673084
3623.463,0.23660666
3625.353,0.23661401
3627.244,0.23669991
3629.137,0.23678394
3631.032,0.23684305
3632.929,0.23690044
3634.828,0.23696429
3636.729,0.23702442
3638.632,0.23708718
3640.537,0.2371677
3642.444,0.23727949
3644.353,0.2374564
3646.263,0.23773488
3648.176,0.23808218
3650.091,0.23838801
3652.008,0.23853186
3653.927,0.2384504
3655.848,0.23818561
3657.771,0.23789369
3659.696,0.23773515
3661.623,0.2377271
3663.552,0.23777372
3665.483,0.2378212
3667.416,0.23787078
3669.351,0.23789444
3671.288,0.23788913
3673.227,0.2379763
3675.168,0.23828753
3677.111,0.238783
3679.057,0.23930228
3681.004,0.23972379
3682.953,0.23997339
3684.905,0.23999778
3686.858,0.23985157
3688.814,0.23969884
3690.771,0.23963199
3692.731,0.23960136
3694.693,0.23956772
3696.656,0.23956904
3698.622,0.2395992
3700.59,0.23959029
3702.56,0.2395558
3704.532,0.23960588
3706.507,0.23978029
3708.483,0.23999309
3710.461,0.2401653
3712.442,0.24030612
3714.425,0.24044293
3716.409,0.24057909
3718.396,0.24073469
3720.385,0.24093805
3722.376,0.24115206
3724.37,0.2413029
3726.365,0.24140188
3728.362,0.24154739
3730.362,0.24177208
3732.364,0.24199856
3734.368,0.24218949
3736.374,0.24242582
3738.382,0.242772
3740.392,0.24318937
3742.405,0.24362733
3744.419,0.24406491
3746.436,0.24442275
3748.455,0.24460903
3750.476,0.24468122
3752.499,0.24477989
3754.525,0.24490249
3756.553,0.24495232
3758.582,0.24496644
3760.614,0.24506597
3762.649,0.24523471
3764.685,0.24537841
3766.724,0.24552469
3768.764,0.24575252
3770.807,0.24602759
3772.853,0.24628999
3774.9,0.24656515
3776.95,0.24684512
3779.001,0.24703169
3781.056,0.24712243
3783.112,0.24726056
3785.17,0.24751315
3787.231,0.2477888
3789.294,0.24802087
3791.359,0.24824107
3793.427,0.2484577
3795.496,0.24863823
3797.568,0.24880664
3799.643,0.24901257
3801.719,0.24925088
3803.798,0.24950412
3805.879,0.24979352
3807.962,0.2501039
3810.048,0.25035744
3812.135,0.25052032
3814.225,0.25065169
3816.318,0.25081644
3818.412,0.25102056
3820.509,0.25123169
3822.609,0.25140967
3824.71,0.25153253
3826.814,0.25163123
3828.92,0.25176933
3831.029,0.25197258
3833.139,0.25222244
3835.252,0.25250649
3837.368,0.25282187
3839.486,0.25315175
3841.606,0.25348444
3843.728,0.25382546
3845.853,0.25416647
3847.98,0.25448782
3850.109,0.2548039
3852.241,0.25514913
3854.375,0.25551614
3856.512,0.25586523
3858.65,0.25618872
3860.792,0.25651858
3862.935,0.2568754
3865.081,0.25724251
3867.229,0.25758053
3869.38,0.2578527
3871.533,0.25806077
3873.689,0.25826715
3875.846,0.2585477
3878.007,0.25891587
3880.169,0.25931805
3882.334,0.25970624
3884.502,0.26008113
3886.672,0.26047193
3888.844,0.2608897
3891.019,0.26131621
3893.196,0.26172052
3895.375,0.26207681
3897.557,0.26236703
3899.742,0.26258938
3901.929,0.2627763
3904.118,0.2629905
3906.31,0.26327585
3908.504,0.26361249
3910.7,0.26393733
3912.9,0.26420393
3915.101,0.26441461
3917.305,0.26461224
3919.512,0.26484812
3921.721,0.26514777
3923.932,0.26549004
3926.146,0.26582645
3928.363,0.26613178
3930.581,0.26643507
3932.803,0.26678613
3935.027,0.26720263
3937.253,0.26765831
3939.482,0.26812328
3941.714,0.26858232
3943.948,0.26902626
3946.184,0.26945897
3948.423,0.26990378
3950.665,0.2703679
3952.909,0.27082324
3955.156,0.27126392
3957.405,0.27175104
3959.657,0.27234261
3961.911,0.27301981
3964.168,0.27371854
3966.427,0.27438794
3968.689,0.27498948
3970.954,0.2755182
3973.221,0.27604514
3975.491,0.27665221
3977.763,0.27731139
3980.038,0.27791674
3982.315,0.27841562
3984.595,0.27882189
3986.878,0.27914528
3989.163,0.27941634
3991.451,0.27972035
3993.742,0.28011523
3996.035,0.28056953
3998.33,0.28104552
4000.629,0.28155976
4002.93,0.28211683
4005.233,0.28269248
4007.54,0.28330325
4009.849,0.28397714
4012.16,0.28465461
4014.475,0.28523593
4016.791,0.28570606
4019.111,0.28611148
4021.433,0.28647623
4023.758,0.28682618
4026.086,0.28722361
4028.416,0.28770072
4030.749,0.28822796
4033.085,0.28878424
4035.423,0.28937282
4037.764,0.28995795
4040.108,0.2904982
4042.454,0.2910443
4044.804,0.29169811
4047.155,0.29246774
4049.51,0.29325544
4051.867,0.29397222
4054.228,0.29460541
4056.59,0.29518862
4058.956,0.29578042
4061.324,0.29645053
4063.695,0.29722275
4066.069,0.29803502
4068.446,0.29879779
4070.825,0.29949429
4073.207,0.30018371
4075.592,0.30090523
4077.98,0.30164942
4080.371,0.30242569
4082.764,0.30327613
4085.16,0.30418776
4087.559,0.30508213
4089.961,0.3059274
4092.365,0.30676124
4094.773,0.30759094
4097.183,0.30839357
4099.596,0.30921449
4102.012,0.31011043
4104.43,0.3110239
4106.852,0.31186267
4109.276,0.31264856
4111.703,0.31344216
4114.133,0.31422854
4116.566,0.31502255
4119.002,0.31593959
4121.441,0.31701156
4123.882,0.31810622
4126.327,0.31913614
4128.774,0.3201535
4131.224,0.32117649
4133.677,0.32215082
4136.133,0.32311385
4138.592,0.32416108
4141.054,0.32525815
4143.519,0.32630366
4145.987,0.32731589
4148.457,0.3283602
4150.931,0.32941259
4153.407,0.3304521
4155.887,0.33154181
4158.369,0.33270581
4160.854,0.33388047
4163.343,0.33503606
4165.834,0.33617811
4168.328,0.33725557
4170.826,0.33823643
4173.326,0.3391985
4175.829,0.34020401
4178.335,0.34122901
4180.844,0.34230671
4183.356,0.34354103
4185.872,0.34493032
4188.39,0.34640738
4190.911,0.34806009
4193.435,0.35008935
4195.963,0.35263529
4198.493,0.35583968
4201.026,0.35990087
4203.563,0.36484409
4206.102,0.37044423
4208.645,0.37656545
4211.19,0.38325848
4213.739,0.39035023
4216.291,0.3973744
4218.846,0.40410947
4221.404,0.41065146
4223.965,0.41685228
4226.529,0.42237896
4229.096,0.42730546
4231.666,0.43178444
4234.24,0.43537532
4236.816,0.4375903
4239.396,0.43870234
4241.979,0.43902982
4244.565,0.43799931
4247.154,0.43469984
4249.746,0.42904973
4252.341,0.42220897
4254.94,0.41632108
4257.542,0.41368931
4260.146,0.4156258
4262.754,0.4216205
4265.366,0.42940044
4267.98,0.43621142
4270.598,0.44055793
4273.219,0.44264719
4275.843,0.44349212
4278.47,0.44409484
4281.1,0.44500396
4283.734,0.44620344
4286.371,0.44746699
4289.011,0.44868234
4291.655,0.44966595
4294.301,0.45012479
4296.951,0.45011231
4299.604,0.45013311
4302.261,0.45047028
4304.92,0.45077804
4307.583,0.45055727
4310.25,0.44972496
4312.919,0.44851954
4315.592,0.44720477
4318.268,0.44605062
4320.948,0.44528988
4323.631,0.44489698
4326.317,0.44460658
4329.006,0.44423453
4331.699,0.44378637
4334.395,0.44327416
4337.095,0.44270511
4339.797,0.44225478
4342.504,0.44216419
4345.213,0.44245093
4347.926,0.44296741
4350.642,0.44366584
4353.362,0.44455351
4356.085,0.44551258
4358.811,0.44644607
4361.541,0.44745526
4364.275,0.44864548
4367.011,0.4499423
4369.751,0.45128113
4372.495,0.45270898
4375.242,0.454192
4377.992,0.45565325
4380.746,0.45722565
4383.504,0.45908889
4386.264,0.46110762
4389.029,0.46303772
4391.796,0.46493747
4394.567,0.46693157
4397.342,0.46884371
4400.12,0.47054316
4402.902,0.47228025
4405.687,0.47423508
4408.476,0.47617783
4411.268,0.47797289
4414.064,0.4798339
4416.863,0.48179213
4419.666,0.48356811
4422.472,0.48516426
4425.282,0.48686435
4428.096,0.48859017
4430.913,0.49004321
4433.734,0.49139588
4436.558,0.49301266
4439.386,0.4947076
4442.217,0.49607303
4445.052,0.4972412
4447.891,0.49854396
4450.733,0.499893
4453.579,0.50114523
4456.428,0.50252692
4459.281,0.50409525
4462.138,0.50542853
4464.998,0.50635653
4467.863,0.50732726
4470.73,0.50864648
4473.602,0.51005805
4476.477,0.51132834
4479.355,0.512578
4482.238,0.51383348
4485.124,0.51490452
4488.014,0.515796
4490.908,0.51673299
4493.805,0.51776215
4496.706,0.51876362
4499.611,0.51978842
4502.519,0.52099254
4505.431,0.52230626
4508.347,0.52347787
4511.267,0.52443147
4514.191,0.52534159
4517.118,0.52636375
4520.049,0.52744768
4522.984,0.52850369
4525.923,0.52959802
4528.865,0.5308071
4531.812,0.53199191
4534.762,0.53299183
4537.716,0.53396026
4540.674,0.53514131
4543.635,0.53644503
4546.601,0.53763592
4549.57,0.5387976
4552.543,0.54011771
4555.521,0.54144792
4558.502,0.54257965
4561.487,0.54368766
4564.475,0.54493331
4567.468,0.54602009
4570.465,0.54674207
4573.465,0.54756677
4576.47,0.5489021
4579.478,0.55038438
4582.491,0.55161533
4585.507,0.55281173
4588.527,0.55413198
4591.551,0.55525387
4594.58,0.55616132
4597.612,0.55741385
4600.648,0.55913482
4603.688,0.56068713
4606.732,0.5617351
4609.781,0.56266435
4612.833,0.56366123
4615.889,0.56447489
4618.949,0.56525168
4622.014,0.56650275
4625.082,0.56803324
4628.155,0.56913184
4631.231,0.56985658
4634.312,0.57093719
4637.397,0.57235939
4640.485,0.57349496
4643.578,0.57441182
4646.675,0.57561895
4649.777,0.57693275
4652.882,0.57781892
4655.991,0.5785753
4659.105,0.57988241
4662.223,0.58152562
4665.345,0.58291217
4668.471,0.5842908
4671.601,0.58611888
4674.735,0.58801351
4677.874,0.58948364
4681.017,0.5907809
4684.164,0.59199155
4687.315,0.59253259
4690.471,0.59248352
4693.63,0.59302851
4696.794,0.59470835
4699.962,0.59667226
4703.135,0.59824868
4706.312,0.59977719
4709.493,0.60141232
4712.678,0.60268602
4715.868,0.60362199
4719.062,0.60482683
4722.26,0.60633216
4725.463,0.60765817
4728.669,0.60887224
4731.881,0.61035213
4735.096,0.61187946
4738.316,0.61304519
4741.541,0.6140924
4744.769,0.61543613
4748.002,0.61694594
4751.24,0.61835839
4754.482,0.61978981
4757.728,0.62132625
4760.979,0.62273672
4764.234,0.62392875
4767.494,0.62514066
4770.758,0.62649626
4774.026,0.62788291
4777.299,0.62925693
4780.577,0.63068463
4783.859,0.63213118
4787.145,0.63348416
4790.436,0.63466635
4793.732,0.63565437
4797.032,0.63652181
4800.336,0.63743636
4803.645,0.63848065
4806.959,0.6396001
4810.277,0.64083385
4813.6,0.64230178
4816.927,0.64382568
4820.259,0.64496453
4823.596,0.64556568
4826.937,0.64589877
4830.283,0.64624018
4833.633,0.64676557
4836.988,0.64768338
4840.348,0.64896548
4843.712,0.65018855
4847.081,0.65112228
4850.455,0.65211015
4853.833,0.65341245
4857.216,0.65468274
4860.604,0.6555666
4863.996,0.65630144
4867.393,0.65720026
4870.795,0.65803912
4874.202,0.65852479
4877.613,0.65891425
4881.03,0.65960919
4884.451,0.66060169
4887.876,0.66179655
4891.307,0.66331814
4894.742,0.66505574
4898.182,0.66649414
4901.627,0.66745997
4905.077,0.66845578
4908.532,0.66968103
4911.991,0.67058059
4915.456,0.67094238
4918.925,0.6714433
4922.399,0.67253497
4925.878,0.6738695
4929.362,0.67519381
4932.851,0.6766361
4936.345,0.67790851
4939.844,0.67852614
4943.347,0.67895863
4946.856,0.68016735
4950.37,0.68203925
4953.888,0.6835815
4957.412,0.68446287
4960.941,0.68509715
4964.474,0.68561882
4968.013,0.68601626
4971.556,0.68674178
4975.105,0.68803703
4978.659,0.68919586
4982.218,0.68960467
4985.782,0.68984488
4989.351,0.6906597
4992.925,0.69177958
4996.504,0.69273934
5000.088,0.69377684
5003.678,0.69511215
5007.272,0.69647759
5010.872,0.69790963
5014.477,0.69981412
5018.087,0.70185104
5021.703,0.70303002
5025.323,0.70319308
5028.949,0.70319687
5032.58,0.70354043
5036.216,0.70402
5039.857,0.70459643
5043.504,0.70548232
5047.156,0.70649909
5050.813,0.70729635
5054.475,0.70799329
5058.143,0.70886392
5061.816,0.70974381
5065.495,0.71043028
5069.179,0.71126499
5072.868,0.71268065
5076.562,0.7145024
5080.262,0.71615302
5083.967,0.71727363
5087.678,0.71786103
5091.394,0.71810261
5095.115,0.71834062
5098.842,0.71893041
5102.574,0.71993455
5106.312,0.721083
5110.055,0.72209059
5113.804,0.72290886
5117.558,0.72365831
5121.318,0.72444184
5125.083,0.72529219
5128.854,0.72632121
5132.63,0.7278245
5136.412,0.73002378
5140.199,0.73264358
5143.992,0.73493544
5147.791,0.73622241
5151.595,0.73635016
5155.405,0.73571784
5159.22,0.73509647
5163.041,0.73523663
5166.868,0.7362648
5170.7,0.73758664
5174.538,0.73865851
5178.382,0.73958214
5182.231,0.74070875
5186.086,0.74215715
5189.947,0.74401982
5193.814,0.74641456
5197.686,0.7490267
5201.564,0.75128391
5205.448,0.75312718
5209.338,0.75476428
5213.233,0.75570182
5217.134,0.75527633
5221.041,0.75414882
5224.954,0.75388038
5228.873,0.75502667
5232.798,0.7568041
5236.728,0.75841549
5240.665,0.75963355
5244.607,0.76035166
5248.555,0.76065544
5252.51,0.76110908
5256.47,0.76208721
5260.436,0.76329117
5264.408,0.76450956
5268.386,0.76606378
5272.37,0.7679516
5276.36,0.76961843
5280.356,0.77105337
5284.358,0.77288986
5288.367,0.77499397
5292.381,0.77627432
5296.401,0.77633192
5300.428,0.77601224
5304.46,0.77602332
5308.499,0.77632
5312.544,0.7768982
5316.595,0.77794624
5320.652,0.77917144
5324.715,0.78005801
5328.785,0.78082832
5332.86,0.78232239
5336.942,0.78506623
5341.031,0.78894439
5345.125,0.79322302
5349.226,0.79637628
5353.333,0.79684133
5357.446,0.79480664
5361.566,0.79233363
5365.692,0.79116318
5369.824,0.79133038
5373.962,0.79201216
5378.107,0.79277279
5382.259,0.79354573
5386.417,0.7942073
5390.581,0.7947822
5394.751,0.79559558
5398.928,0.79686096
5403.112,0.79865594
5407.302,0.80139716
5411.498,0.80551764
5415.701,0.81023572
5419.911,0.81344533
5424.127,0.8136586
5428.349,0.81162444
5432.579,0.80925453
5436.814,0.80785105
5441.057,0.80789444
5445.305,0.80943543
5449.561,0.81217986
5453.823,0.81583313
5458.092,0.82039266
5462.368,0.82538463
5466.65,0.82926797
5470.939,0.83100485
5475.234,0.83159067
5479.537,0.83228396
5483.846,0.83253479
5488.162,0.83157433
5492.484,0.83052553
5496.814,0.83088534
5501.15,0.83278626
5505.493,0.83637684
5509.843,0.84263386
5514.2,0.85128076
5518.564,0.86005332
5522.934,0.86696256
5527.312,0.87145261
5531.696,0.87373109
5536.087,0.87515278
5540.486,0.87625923
5544.891,0.86919273
5549.303,0.83820567
5553.723,0.77028057
5558.149,0.6954928
5562.582,0.62357199
5567.023,0.5892542
5571.47,0.58940571
5575.925,0.60111363
5580.387,0.63437839
5584.856,0.67326813
5589.332,0.70035994
5593.815,0.71647084
5598.305,0.72940223
5602.803,0.73972263
5607.307,0.74557204
5611.819,0.7515822
5616.339,0.76027474
5620.865,0.76748247
5625.399,0.77109986
5629.94,0.77556973
5634.489,0.78217024
5639.044,0.786073
5643.607,0.78576306
5648.178,0.78631671
5652.756,0.78880525
5657.341,0.78944343
5661.934,0.78876447
5666.534,0.79118105
5671.142,0.79603861
5675.757,0.79860957
5680.379,0.79897851
5685.01,0.80088466
5689.647,0.80361537
5694.293,0.8042997
5698.945,0.80516269
5703.606,0.80961534
5708.274,0.81510787
5712.949,0.81705687
5717.633,0.81720565
5722.324,0.81917687
5727.022,0.82140086
5731.729,0.82144033
5736.443,0.82182984
5741.165,0.82468146
5745.894,0.82721325
5750.631,0.82787209
5755.377,0.83065425
5760.13,0.83712136
5764.89,0.8418165
5769.659,0.84129953
5774.436,0.83998029
5779.22,0.84021703
5784.012,0.83894135
5788.813,0.83612362
5793.621,0.83618348
5798.437,0.83970834
5803.262,0.84294257
5808.094,0.84604954
5812.934,0.85245141
5817.782,0.85992174
5822.639,0.86208096
5827.503,0.85991033
5832.376,0.85879
5837.257,0.85840953
5842.146,0.85658298
5847.043,0.85655828
5851.948,0.86102741
5856.862,0.866104
5861.783,0.86802645
5866.714,0.87034268
5871.652,0.87563338
5876.598,0.87967962
5881.553,0.87950067
5886.517,0.87907001
5891.488,0.87942639
5896.468,0.87661649
5901.457,0.87170699
5906.454,0.87040855
5911.459,0.87283168
5916.473,0.87494308
5921.495,0.87719359
5926.526,0.8826578
5931.565,0.88828678
5936.613,0.88808713
5941.67,0.88422532
5946.735,0.88224278
5951.809,0.88179619
5956.891,0.8811177
5961.982,0.8821369
5967.082,0.88540023
5972.19,0.88725673
5977.307,0.88651401
5982.433,0.88665062
5987.568,0.88808696
5992.711,0.88740852
5997.864,0.8852481
6003.025,0.88548527
6008.195,0.88745448
6013.374,0.8871968
6018.562,0.88533776
6023.759,0.88577712
6028.964,0.88907559
6034.179,0.89329706
6039.403,0.89799662
6044.636,0.90202158
6049.878,0.90218946
6055.129,0.89925871
6060.389,0.89808931
6065.658,0.89946968
6070.936,0.89962221
6076.224,0.89707725
6081.52,0.89478718
6086.826,0.89457822
6092.141,0.89585448
6097.466,0.89866919
6102.8,0.90295958
6108.143,0.9059069
6113.495,0.90497081
6118.857,0.90216253
6124.228,0.90053469
6129.609,0.90025462
6134.999,0.9007524
6140.398,0.90247383
6145.807,0.90490915
6151.226,0.90618179
6156.654,0.9060291
6162.091,0.90615924
6167.539,0.90724217
6172.996,0.90839628
6178.462,0.90916029
6183.938,0.90954749
6189.424,0.90914826
6194.92,0.90814851
6200.425,0.90785951
6205.94,0.90873212
6211.465,0.9096195
6217.0,0.90973668
6222.544,0.90983566
6228.099,0.91040571
6233.663,0.91074806
6239.237,0.91055786
6244.822,0.91067839
6250.416,0.91146956
6256.02,0.91228472
6261.635,0.91287415
6267.259,0.91373308
6272.893,0.91466026
6278.538,0.91485208
6284.193,0.91448686
6289.858,0.91456615
6295.533,0.91514053
6301.218,0.9155813
6306.914,0.91611367
6312.619,0.91732716
6318.336,0.91878682
6324.062,0.91999524
6329.799,0.92148262
6335.546,0.92328558
6341.304,0.92399995
6347.072,0.92356815
6352.851,0.92413015
6358.64,0.92628432
6364.44,0.92783705
6370.25,0.92741232
6376.071,0.92634063
6381.903,0.92581887
6387.745,0.92590828
6393.598,0.92749995
6399.461,0.93139699
6405.335,0.93528997
6411.221,0.93571939
6417.116,0.93368334
6423.023,0.93219485
6428.941,0.93115284
6434.869,0.92990529
6440.809,0.92979863
6446.759,0.9311751
6452.72,0.93216993
6458.693,0.93255158
6464.676,0.93444996
6470.671,0.93785342
6476.676,0.93994759
6482.693,0.939923
6488.721,0.93958631
6494.76,0.93899005
6500.81,0.93748652
6506.872,0.93695579
6512.945,0.93848102
6519.029,0.93975054
6525.124,0.93913753
6531.231,0.93876401
6537.35,0.94007374
6543.48,0.94135166
6549.621,0.94178572
6555.774,0.94307472
6561.938,0.94522321
6568.114,0.94603043
6574.302,0.94577642
6580.501,0.94648575
6586.712,0.94740371
6592.934,0.94681046
6599.169,0.94612801
6605.415,0.94734915
6611.673,0.94950456
6617.943,0.95093277
6624.224,0.95204565
6630.518,0.95283835
6636.823,0.95168667
6643.141,0.9493895
6649.47,0.94896109
6655.812,0.95061947
6662.166,0.9519876
6668.532,0.95217524
6674.91,0.95237285
6681.3,0.95280566
6687.702,0.95289639
6694.117,0.95351043
6700.544,0.95535734
6706.983,0.95686773
6713.435,0.9565793
6719.899,0.95572319
6726.375,0.95570609
6732.864,0.95593147
6739.365,0.95593236
6745.879,0.95659856
6752.406,0.95809979
6758.945,0.95930177
6765.497,0.95999403
6772.062,0.96099599
6778.639,0.96187811
6785.229,0.96140728
6791.832,0.96025265
6798.448,0.96001057
6805.076,0.96055841
6811.718,0.96094517
6818.372,0.96135594
6825.039,0.96222627
6831.72,0.96303029
6838.413,0.96354848
6845.12,0.96450662
6851.84,0.96576642
6858.573,0.96592926
6865.319,0.96497211
6872.078,0.96449361
6878.851,0.96484205
6885.637,0.9651042
6892.437,0.96525259
6899.25,0.96585069
6906.076,0.96641554
6912.916,0.96626947
6919.769,0.9661395
6926.636,0.96682127
6933.517,0.96771249
6940.411,0.96815511
6947.319,0.9686364
6954.241,0.96938043
6961.176,0.96970493
6968.125,0.96972689
6975.089,0.97036084
6982.066,0.97137274
6989.057,0.97174389
6996.062,0.97164344
7003.081,0.97196528
7010.114,0.97254282
7017.161,0.97283532
7024.223,0.97333272
7031.298,0.97447465
7038.388,0.97544372
7045.492,0.97562178
7052.611,0.97570664
7059.743,0.97611413
7066.891,0.9762784
7074.052,0.9761039
7081.229,0.97624972
7088.419,0.97677272
7095.625,0.97712377
7102.845,0.97739846
7110.079,0.97808867
7117.329,0.97897012
7124.593,0.9795421
7131.872,0.97997311
7139.166,0.98057617
7146.475,0.98107065
7153.799,0.98117926
7161.137,0.98121014
7168.491,0.98149078
7175.86,0.98190058
7183.244,0.9822732
7190.643,0.98265842
7198.058,0.98308568
7205.487,0.98344101
7212.933,0.98365045
7220.393,0.98382064
7227.869,0.98414313
7235.36,0.98466878
7242.867,0.98523906
7250.39,0.98573632
7257.928,0.98620597
7265.481,0.98659816
7273.051,0.9867609
7280.636,0.9868626
7288.237,0.98725508
7295.854,0.98783056
7303.487,0.98820121
7311.135,0.9884533
7318.8,0.98892883
7326.481,0.98945876
7334.178,0.98969475
7341.891,0.98986779
7349.62,0.99029787
7357.366,0.990756
7365.128,0.99105933
7372.906,0.99153902
7380.701,0.99229545
7388.512,0.99292185
7396.34,0.99332758
7404.184,0.99388755
7412.045,0.99456363
7419.922,0.99495714
7427.817,0.9951494
7435.728,0.99551557
7443.656,0.99596753
7451.601,0.99625886
7459.562,0.99655
7467.541,0.99698825
7475.537,0.99733509
7483.55,0.9975089
7491.58,0.99777011
7499.628,0.9981514
7507.692,0.99841569
7515.774,0.99858055
7523.874,0.99884338
7531.99,0.99914963
7540.125,0.99938583
7548.277,0.99965149
7556.446,0.9999856
7564.633,0.0100024177
7572.838,0.0100041281
7581.061,0.0100060181
7589.302,0.0100073578
7597.56,0.0100075272
7605.837,0.0100082499
7614.131,0.0100102321
7622.444,0.0100115381
7630.774,0.0100117743
7639.123,0.0100128714
7647.491,0.0100148389
7655.876,0.0100162465
7664.28,0.0100182085
7672.702,0.0100222754
7681.143,0.0100265971
7689.602,0.0100290996
7698.08,0.0100309703
7706.577,0.0100331486
7715.093,0.0100341975
7723.627,0.0100344405
7732.18,0.0100366345
7740.752,0.0100409071
7749.343,0.0100446971
7757.953,0.010047698
7766.583,0.0100514797
7775.231,0.0100552694
7783.899,0.0100575349
7792.586,0.01005945
7801.292,0.0100626934
7810.018,0.0100664792
7818.764,0.0100701109
7827.529,0.0100748444
7836.313,0.0100809945
7845.117,0.0100866769
7853.942,0.0100910834
7862.786,0.010095569
7871.649,0.010100891
7880.533,0.0101060943
7889.437,0.0101105671
7898.361,0.0101144699
7907.305,0.0101175117
7916.27,0.0101194081
7925.254,0.0101212267
7934.26,0.0101243343
7943.285,0.0101287971
7952.331,0.0101337975
7961.398,0.0101391911
7970.485,0.0101449663
7979.594,0.0101502607
7988.723,0.0101541393
7997.872,0.0101570757
8007.043,0.0101601585
8016.235,0.0101635056
8025.448,0.0101666245
8034.682,0.010169808
8043.937,0.0101736207
8053.214,0.010177663
8062.512,0.0101812076
8071.832,0.0101841662
8081.173,0.010186544
8090.535,0.0101882693
8099.92,0.0101902739
8109.326,0.0101938851
8118.754,0.0101986098
8128.204,0.0102026698
8137.676,0.0102055769
8147.169,0.0102081243
8156.686,0.0102105496
8166.224,0.0102128899
8175.785,0.0102160872
8185.368,0.0102204603
8194.973,0.0102246723
8204.601,0.0102278369
8214.252,0.0102307341
8223.925,0.0102337835
8233.621,0.010236337
8243.34,0.0102386812
8253.082,0.0102420931
8262.847,0.0102465788
8272.635,0.0102508652
8282.446,0.0102545333
8292.281,0.0102581192
8302.139,0.0102617359
8312.02,0.01026524
8321.925,0.0102690531
8331.853,0.0102732947
8341.805,0.0102771896
8351.781,0.0102801979
8361.781,0.0102828604
8371.804,0.0102858751
8381.852,0.0102890472
8391.924,0.0102917005
8402.02,0.0102938925
8412.14,0.010296366
8422.285,0.0102993258
8432.454,0.0103020712
8442.648,0.0103043367
8452.866,0.0103066856
8463.109,0.0103092326
8473.377,0.0103114057
8483.67,0.010313533
8493.988,0.0103163439
8504.331,0.0103191517
8514.699,0.0103208125
8525.092,0.0103221597
8535.511,0.0103243609
8545.955,0.0103265389
8556.425,0.0103277299
8566.921,0.0103292092
8577.442,0.0103317298
8587.989,0.0103337578
8598.562,0.0103345484
8609.161,0.0103355906
8619.786,0.0103372469
8630.437,0.0103382813
8641.115,0.0103391344
8651.819,0.01034137
8662.55,0.0103442773
8673.307,0.0103463965
8684.091,0.0103485437
8694.902,0.010351593
8705.739,0.0103542796
8716.604,0.0103559671
8727.496,0.0103580171
8738.415,0.0103606151
8749.361,0.0103624545
8760.335,0.0103640107
8771.336,0.0103667171
8782.365,0.0103699492
8793.422,0.0103727934
8804.507,0.0103762369
8815.619,0.0103805215
8826.76,0.0103840946
8837.928,0.0103869462
8849.125,0.0103903877
8860.351,0.0103933764
8871.604,0.0103942999
8882.887,0.0103948735
8894.198,0.0103971165
8905.538,0.0103995338
8916.907,0.0104008498
8928.305,0.0104027146
8939.732,0.0104052628
8951.188,0.0104060903
8962.673,0.0104057027
8974.189,0.0104068614
8985.733,0.0104086517
8997.308,0.0104082313
9008.912,0.0104068455
9020.546,0.0104066974
9032.21,0.0104059064
9043.905,0.0104028236
9055.629,0.010400325
9067.384,0.0104001342
9079.17,0.010399709
9090.986,0.0103980551
9102.833,0.0103975099
9114.711,0.0103973728
9126.62,0.0103942165
9138.56,0.0103885931
9150.531,0.0103840073
9162.534,0.0103803992
9174.568,0.0103759349
9186.634,0.0103720916
9198.731,0.0103708033
9210.86,0.0103701647
9223.022,0.0103683192
9235.215,0.0103667759
9247.441,0.01036646
9259.699,0.0103653579
9271.99,0.0103628883
9284.313,0.0103612569
9296.669,0.0103613194
9309.058,0.0103614218
9321.48,0.0103609657
9333.935,0.0103608786
9346.423,0.0103609469
9358.945,0.0103600671
9371.5,0.0103589021
9384.089,0.0103589783
9396.712,0.0103601513
9409.369,0.0103610075
9422.06,0.0103612656
9434.785,0.0103616689
9447.545,0.0103623601
9460.339,0.0103629942
9473.167,0.0103639625
9486.031,0.0103657382
9498.929,0.0103676917
9511.863,0.0103690619
9524.832,0.0103704012
9537.836,0.0103725044
9550.876,0.0103748755
9563.951,0.0103767882
9577.062,0.0103786314
9590.209,0.0103805426
9603.393,0.0103816087
9616.612,0.0103817227
9629.868,0.01038225
9643.16,0.0103837468
9656.49,0.0103854091
9669.856,0.0103871014
9683.259,0.0103894527
9696.699,0.0103918383
9710.176,0.0103931377
9723.691,0.0103937134
9737.244,0.0103944777
9750.834,0.0103949759
9764.463,0.0103948079
9778.129,0.0103949365
9791.834,0.0103959105
9805.577,0.0103967894
9819.359,0.0103974171
9833.18,0.0103987079
9847.039,0.0104005683
9860.938,0.0104017834
9874.875,0.0104024457
9888.853,0.0104034572
9902.869,0.010404507
9916.926,0.0104044839
9931.022,0.0104035275
9945.159,0.0104022741
9959.336,0.0104006397
9973.553,0.0103987248
9987.811,0.0103977262
10002.109,0.0103981734
10016.449,0.0103990014
10030.83,0.0103991877
10045.252,0.0103991097
10059.715,0.0103991991
10074.221,0.0103990186
10088.768,0.0103984767
10103.357,0.0103986266
10117.988,0.0104000279
10132.662,0.0104019482
10147.378,0.0104036378
10162.137,0.0104053455
10176.939,0.0104072038
10191.784,0.0104087179
10206.672,0.0104098928
10221.604,0.0104114487
10236.58,0.0104131892
10251.6,0.0104141367
10266.663,0.0104145063
10281.771,0.0104155752
10296.924,0.0104174124
10312.121,0.0104191775
10327.363,0.0104210323
10342.65,0.0104235868
10357.982,0.0104261216
10373.36,0.0104278082
10388.784,0.0104292982
10404.253,0.0104310772
10419.769,0.0104321197
10435.331,0.0104319483
10450.939,0.0104314365
10466.594,0.0104308015
10482.296,0.0104295609
10498.045,0.0104285818
10513.842,0.0104289947
10529.686,0.0104300984
10545.577,0.0104309988
10561.517,0.0104324447
10577.505,0.0104345338
10593.542,0.0104358096
10609.627,0.0104361991
10625.761,0.0104371509
10641.944,0.0104381082
10658.176,0.0104375634
10674.458,0.0104366428
10690.79,0.0104370528
10707.172,0.0104375918
10723.604,0.0104373223
10740.086,0.0104381108
10756.619,0.0104404343
10773.203,0.0104415856
10789.839,0.0104412204
10806.525,0.0104418644
10823.264,0.0104432304
10840.054,0.0104430909
10856.896,0.0104430392
10873.791,0.0104454579
10890.738,0.0104478766
10907.738,0.0104476772
10924.791,0.010447791
10941.898,0.010450588
10959.058,0.0104532069
10976.272,0.0104540769
10993.541,0.0104560541
11010.863,0.0104592198
11028.24,0.0104600442
11045.672,0.0104588513
11063.16,0.0104588364
11080.702,0.0104587262
11098.301,0.0104559495
11115.955,0.0104531228
11133.665,0.0104528963
11151.432,0.0104521325
11169.256,0.0104485058
11187.137,0.0104452932
11205.075,0.0104444786
11223.07,0.0104433166
11241.124,0.0104411086
11259.235,0.0104402201
11277.405,0.0104400908
11295.634,0.0104383184
11313.921,0.0104362934
11332.268,0.0104361772
11350.675,0.0104360935
11369.141,0.0104339484
11387.667,0.0104313851
11406.254,0.0104296177
11424.901,0.0104272451
11443.61,0.0104242367
11462.38,0.0104225291
11481.211,0.0104219341
11500.105,0.0104207102
11519.06,0.0104190979
11538.079,0.0104182149
11557.16,0.0104173535
11576.304,0.0104158718
11595.511,0.0104145926
11614.783,0.0104137995
11634.118,0.0104124846
11653.518,0.0104107638
11672.983,0.0104099305
11692.513,0.0104102177
11712.108,0.01041054
11731.769,0.0104104695
11751.496,0.0104102395
11771.29,0.0104097977
11791.15,0.0104089687
11811.077,0.0104085078
11831.072,0.0104092854
11851.134,0.0104111987
11871.265,0.0104131639
11891.464,0.0104148247
11911.731,0.0104165751
11932.068,0.0104180159
11952.475,0.0104178175
11972.951,0.0104165341
11993.497,0.0104163322
12014.114,0.0104177776
12034.802,0.0104192609
12055.562,0.0104206885
12076.393,0.0104229643
12097.296,0.0104248245
12118.271,0.0104245412
12139.32,0.0104238227
12160.441,0.0104244151
12181.636,0.0104243497
12202.905,0.0104223277
12224.249,0.0104214206
12245.667,0.0104228027
12267.16,0.0104228587
12288.729,0.0104204162
12310.373,0.0104192028
12332.094,0.0104197201
12353.892,0.0104180618
12375.767,0.0104142296
12397.719,0.0104119572
12419.75,0.0104104894
12441.859,0.0104067595
12464.046,0.0104033104
12486.313,0.0104041535
12508.659,0.0104067295
12531.086,0.0104069152
12553.593,0.0104060009
12576.18,0.0104058583
12598.85,0.0104042091
12621.601,0.0104005374
12644.434,0.0103987908
12667.35,0.0104001292
12690.349,0.0104003204
12713.432,0.0103980319
12736.599,0.0103969022
12759.85,0.0103979625
12783.187,0.0103979568
12806.608,0.0103964734
12830.116,0.0103964989
12853.71,0.0103980373
12877.391,0.0103982047
12901.159,0.0103974727
12925.016,0.0103987448
12948.96,0.010401475
12972.993,0.0104027787
12997.116,0.0104033954
13021.329,0.0104057242
13045.631,0.0104085057
13070.025,0.0104091069
13094.51,0.0104089922
13119.087,0.0104104581
13143.756,0.0104117884
13168.518,0.0104111141
13193.373,0.0104109038
13218.322,0.0104127333
13243.366,0.0104138655
13268.505,0.0104131669
13293.74,0.0104139097
13319.07,0.0104165049
13344.497,0.0104172015
13370.021,0.010415701
13395.644,0.0104154634
13421.364,0.0104157076
13447.183,0.0104134245
13473.102,0.0104104342
13499.121,0.010409527
13525.24,0.0104078268
13551.461,0.0104034549
13577.783,0.0104001977
13604.208,0.0103994557
13630.736,0.0103970865
13657.367,0.0103934278
13684.103,0.0103926928
13710.943,0.0103922709
13737.889,0.0103860126
13764.941,0.0103772994
13792.099,0.0103727299
13819.365,0.0103700504
13846.739,0.010365655
13874.221,0.0103638754
13901.813,0.0103657164
13929.515,0.0103640277
13957.327,0.0103579159
13985.25,0.0103554926
14013.285,0.0103563799
14041.433,0.0103530384
14069.694,0.0103482904
14098.068,0.010349648
14126.558,0.0103512435
14155.163,0.0103451736
14183.883,0.0103385174
14212.721,0.0103384189
14241.676,0.0103366152
14270.749,0.0103286411
14299.94,0.0103246738
14329.252,0.0103276142
14358.684,0.0103261843
14388.237,0.010320028
14417.911,0.0103198713
14447.709,0.0103223721
14477.629,0.010315379
14507.674,0.0103052577
14537.844,0.0103044407
14568.139,0.0103060141
14598.561,0.0102990748
14629.109,0.010292397
14659.786,0.0102931489
14690.592,0.0102905934
14721.528,0.010280068
14752.594,0.0102756832
14783.791,0.0102792883
14815.121,0.0102753216
14846.583,0.0102597684
14878.179,0.0102437538
14909.91,0.0102264904
14941.777,0.0102048491
14973.78,0.0101915546
15005.92,0.0101980792
15038.198,0.0102075057
15070.616,0.0102061261
15103.173,0.0101984753
15135.871,0.0101923605
15168.712,0.0101774997
15201.695,0.0101523522
15234.821,0.010116754
15268.092,0.0100743656
15301.509,0.0100226132
15335.072,0.99735528
15368.783,0.99175923
15402.642,0.98568954
15436.651,0.97850087
15470.81,0.97217482
15505.12,0.96395337
15539.583,0.95550844
15574.199,0.94661657
15608.97,0.93889684
15643.896,0.92494106
15678.979,0.90885271
15714.22,0.89049918
15749.619,0.87444582
15785.178,0.85317879
15820.897,0.830912
15856.779,0.81122555
15892.824,0.79949803
15929.033,0.7830006
15965.407,0.76066819
