Database of Origin,University of Winnipeg Spectrophotometer Facility
Sample Description,16.7. Meteorites - Ordinary chondrites 16.7.4. NASA samples D&P 102F FTIR spectra - LAP04840 ordinary chondrite
Other Information,LAP 04 840 Bulk Sample 50W QTH 8mm spot
Date Added,2018-07-23 23:46:34.855940

Data ID,FTIR_MET_44_1       
Sample ID,LAP04840
Mineral Name,Ordinary Chondrite
Grain Size,bulk powder
Viewing Geometry,30/0
Resolution,6 cm-1
Composition,Amphibole bearing

Wavelength
2000.56,0.11888608
2001.142,0.11881074
2001.725,0.11866177
2002.307,0.11850285
2002.891,0.11842499
2003.474,0.11845199
2004.058,0.11851365
2004.643,0.11851601
2005.227,0.11843407
2005.812,0.11832881
2006.397,0.11827858
2006.983,0.11830993
2007.569,0.11839086
2008.155,0.11846088
2008.742,0.11845713
2009.329,0.11834437
2009.916,0.11815048
2010.504,0.11796217
2011.092,0.11786322
2011.68,0.11786053
2012.269,0.1178783
2012.858,0.1178362
2013.447,0.11772859
2014.037,0.11761261
2014.627,0.11752671
2015.217,0.11745356
2015.808,0.11737457
2016.399,0.11733032
2016.99,0.1173966
2017.582,0.11759355
2018.174,0.11783399
2018.766,0.11798174
2019.359,0.11796692
2019.952,0.11783551
2020.546,0.11768215
2021.139,0.11755578
2021.733,0.11743475
2022.328,0.11728588
2022.923,0.11713248
2023.518,0.1170498
2024.113,0.11708124
2024.709,0.11717041
2025.305,0.11719645
2025.902,0.11708463
2026.499,0.11688213
2027.096,0.11671389
2027.693,0.11666259
2028.291,0.11669506
2028.89,0.11670042
2029.488,0.1166018
2030.087,0.1164245
2030.686,0.11625973
2031.286,0.11618041
2031.886,0.11619599
2032.486,0.11626374
2033.087,0.1163253
2033.688,0.11633746
2034.289,0.11628406
2034.891,0.1161734
2035.493,0.1160303
2036.096,0.11588645
2036.698,0.11577639
2037.302,0.11573663
2037.905,0.11578881
2038.509,0.11591148
2039.113,0.11603498
2039.718,0.11608105
2040.322,0.11601916
2040.928,0.11588393
2041.533,0.11573611
2042.139,0.11560951
2042.746,0.1154966
2043.352,0.11537643
2043.959,0.1152443
2044.567,0.11510982
2045.174,0.11498308
2045.782,0.11487788
2046.391,0.11481573
2047.0,0.11481125
2047.609,0.11484667
2048.218,0.11486645
2048.828,0.11480943
2049.438,0.11465903
2050.049,0.11445843
2050.66,0.11427406
2051.271,0.11415487
2051.883,0.11412351
2052.495,0.11418493
2053.107,0.11432126
2053.72,0.11447871
2054.333,0.11458213
2054.947,0.11458601
2055.56,0.11451125
2056.175,0.11441917
2056.789,0.11434856
2057.404,0.11429141
2058.019,0.11422525
2058.635,0.11414492
2059.251,0.11406132
2059.867,0.11398411
2060.484,0.11392045
2061.101,0.11388209
2061.718,0.11387899
2062.336,0.11390419
2062.954,0.11393081
2063.573,0.11392841
2064.192,0.11388043
2064.811,0.11378537
2065.431,0.1136502
2066.051,0.11349158
2066.671,0.11333613
2067.292,0.11321159
2067.913,0.11313345
2068.534,0.11309876
2069.156,0.11309302
2069.778,0.11310034
2070.401,0.11310919
2071.024,0.1131106
2071.647,0.11309764
2072.271,0.11307034
2072.895,0.11304098
2073.519,0.113027
2074.144,0.11302472
2074.769,0.11299745
2075.395,0.11290489
2076.02,0.11274912
2076.647,0.11259069
2077.273,0.11251506
2077.9,0.1125681
2078.528,0.11271551
2079.155,0.11286439
2079.784,0.11292891
2080.412,0.11287657
2081.041,0.11273792
2081.67,0.11258184
2082.3,0.11246798
2082.93,0.11240491
2083.56,0.11235087
2084.191,0.11226718
2084.822,0.11216893
2085.454,0.11211398
2086.085,0.11213937
2086.718,0.11221162
2087.35,0.11224762
2087.983,0.11219026
2088.617,0.11205921
2089.251,0.11192957
2089.885,0.11187282
2090.519,0.11191507
2091.154,0.11202954
2091.789,0.11215081
2092.425,0.1122028
2093.061,0.11214474
2093.697,0.1120094
2094.334,0.11188507
2094.971,0.11184239
2095.609,0.11187433
2096.247,0.1119082
2096.885,0.11187894
2097.524,0.11179144
2098.163,0.11170806
2098.803,0.11168367
2099.443,0.11171609
2100.083,0.11174967
2100.723,0.11172479
2101.364,0.11163122
2102.006,0.11151788
2102.648,0.11145363
2103.29,0.11147095
2103.932,0.11153784
2104.575,0.11158465
2105.219,0.11156619
2105.862,0.11149722
2106.506,0.11142313
2107.151,0.11136104
2107.796,0.11128206
2108.441,0.11114837
2109.087,0.11095672
2109.733,0.11074085
2110.379,0.11053764
2111.026,0.11036157
2111.673,0.11020932
2112.321,0.11007131
2112.969,0.10993938
2113.617,0.10982164
2114.266,0.10975576
2114.915,0.10978494
2115.565,0.10990385
2116.215,0.11004061
2116.865,0.11011288
2117.516,0.11010578
2118.167,0.11008413
2118.819,0.11012063
2119.471,0.11021363
2120.123,0.11028248
2120.776,0.1102402
2121.429,0.11006389
2122.082,0.10980518
2122.736,0.10955154
2123.391,0.10938021
2124.045,0.10933024
2124.7,0.10939752
2125.356,0.10954694
2126.012,0.10972625
2126.668,0.10987436
2127.325,0.10993856
2127.982,0.10989703
2128.64,0.10977149
2129.297,0.10961685
2129.956,0.10948886
2130.614,0.10941019
2131.274,0.10936206
2131.933,0.10930401
2132.593,0.10920211
2133.253,0.10904857
2133.914,0.10886798
2134.575,0.10870794
2135.237,0.10860938
2135.899,0.10857084
2136.561,0.10854632
2137.224,0.10849534
2137.887,0.10843277
2138.55,0.10841665
2139.214,0.10848302
2139.879,0.10859922
2140.544,0.10868409
2141.209,0.10867767
2141.874,0.10858865
2142.54,0.10847556
2143.207,0.10838696
2143.873,0.10832758
2144.541,0.10827736
2145.208,0.10823071
2145.876,0.10820479
2146.545,0.10821357
2147.214,0.10824366
2147.883,0.10826696
2148.553,0.10827156
2149.223,0.10827037
2149.893,0.10827373
2150.564,0.10826017
2151.235,0.10818775
2151.907,0.10804613
2152.579,0.10789246
2153.252,0.10781706
2153.925,0.10786762
2154.598,0.10800464
2155.272,0.10813335
2155.946,0.10818582
2156.621,0.1081711
2157.296,0.10814332
2157.972,0.1081318
2158.647,0.10811656
2159.324,0.10807141
2160.001,0.1080133
2160.678,0.10798791
2161.355,0.10800701
2162.033,0.10802743
2162.712,0.10800036
2163.39,0.10793616
2164.07,0.10790309
2164.749,0.10795552
2165.429,0.10807595
2166.11,0.10819645
2166.791,0.10826576
2167.472,0.1082862
2168.154,0.10829084
2168.836,0.10829512
2169.519,0.10827795
2170.202,0.10820826
2170.885,0.10807997
2171.569,0.10792357
2172.254,0.10779488
2172.938,0.10774811
2173.624,0.10779806
2174.309,0.10789894
2174.995,0.10796905
2175.682,0.1079531
2176.368,0.10786887
2177.056,0.10778744
2177.743,0.1077595
2178.432,0.10776406
2179.12,0.10773641
2179.809,0.10764285
2180.499,0.10751762
2181.189,0.10742473
2181.879,0.10739635
2182.57,0.1074173
2183.261,0.10745822
2183.952,0.10750155
2184.644,0.10753524
2185.337,0.10753699
2186.03,0.10748483
2186.723,0.10738947
2187.417,0.10730251
2188.111,0.10727698
2188.806,0.10732183
2189.501,0.10740204
2190.196,0.10748123
2190.892,0.10755585
2191.589,0.10764706
2192.285,0.10775837
2192.983,0.1078516
2193.68,0.10787684
2194.379,0.10782005
2195.077,0.10771387
2195.776,0.10760502
2196.476,0.10751833
2197.175,0.1074517
2197.876,0.10739946
2198.577,0.10737309
2199.278,0.10739352
2199.979,0.10745913
2200.682,0.10752765
2201.384,0.10754307
2202.087,0.10748548
2202.79,0.10739427
2203.494,0.10733349
2204.199,0.10732742
2204.903,0.10733661
2205.609,0.10730671
2206.314,0.10723301
2207.02,0.10717113
2207.727,0.10718227
2208.434,0.10726967
2209.141,0.10737575
2209.849,0.10743397
2210.557,0.10741845
2211.266,0.10735471
2211.975,0.10729554
2212.685,0.10728233
2213.395,0.10731552
2214.106,0.10735556
2214.817,0.10735604
2215.528,0.10730274
2216.24,0.10722327
2216.952,0.10716116
2217.665,0.10714378
2218.379,0.10717371
2219.092,0.10723798
2219.806,0.107309
2220.521,0.10734061
2221.236,0.10728723
2221.952,0.10714367
2222.668,0.10696601
2223.384,0.10683952
2224.101,0.10681526
2224.818,0.10687377
2225.536,0.10695061
2226.254,0.10699274
2226.973,0.10698624
2227.692,0.1069385
2228.412,0.10685318
2229.132,0.10673
2229.853,0.10658391
2230.574,0.10644814
2231.295,0.10635253
2232.017,0.10630619
2232.74,0.10630515
2233.462,0.1063453
2234.186,0.10641602
2234.91,0.10648336
2235.634,0.10649862
2236.359,0.10643523
2237.084,0.10631297
2237.809,0.10618354
2238.536,0.1060913
2239.262,0.10604874
2239.989,0.10604343
2240.717,0.10605288
2241.445,0.10605072
2242.173,0.10601672
2242.902,0.10595542
2243.631,0.10590216
2244.361,0.10589809
2245.092,0.10595574
2245.822,0.10604372
2246.554,0.10610524
2247.285,0.10609142
2248.017,0.10599008
2248.75,0.10583791
2249.483,0.10570648
2250.217,0.10566346
2250.951,0.10572466
2251.686,0.10584077
2252.421,0.10593637
2253.156,0.10596835
2253.892,0.10594613
2254.628,0.10589979
2255.365,0.10584157
2256.103,0.10576392
2256.841,0.10566316
2257.579,0.10555344
2258.318,0.10545821
2259.057,0.10539315
2259.797,0.10535545
2260.537,0.10532528
2261.278,0.1052775
2262.019,0.10520073
2262.761,0.10511176
2263.503,0.10504797
2264.246,0.10504026
2264.989,0.10508631
2265.732,0.10515082
2266.477,0.10519409
2267.221,0.10519972
2267.966,0.10517375
2268.712,0.10512473
2269.458,0.10505767
2270.204,0.10498844
2270.951,0.1049457
2271.699,0.10494543
2272.447,0.10496203
2273.195,0.10493625
2273.944,0.10482496
2274.694,0.1046463
2275.444,0.10447154
2276.194,0.10437243
2276.945,0.10437494
2277.696,0.1044527
2278.448,0.10455305
2279.201,0.10462483
2279.954,0.10463924
2280.707,0.1046053
2281.461,0.10456603
2282.215,0.1045668
2282.97,0.10461408
2283.725,0.10466528
2284.481,0.10466511
2285.237,0.10459565
2285.994,0.10449335
2286.752,0.10441863
2287.509,0.10440828
2288.268,0.10445223
2289.026,0.10450553
2289.786,0.10452049
2290.545,0.10448203
2291.306,0.10442018
2292.067,0.10438197
2292.828,0.10438602
2293.59,0.10440639
2294.352,0.10440684
2295.115,0.10438395
2295.878,0.1043655
2296.642,0.10436848
2297.406,0.1043716
2298.171,0.10433827
2298.936,0.10425844
2299.702,0.10415439
2300.468,0.10405066
2301.235,0.10395298
2302.002,0.10385935
2302.77,0.1037764
2303.539,0.10371212
2304.307,0.10365823
2305.077,0.10359416
2305.847,0.10351308
2306.617,0.10343561
2307.388,0.10339149
2308.159,0.10339303
2308.931,0.10343406
2309.703,0.10350607
2310.476,0.10359369
2311.25,0.10365613
2312.024,0.10364039
2312.798,0.10353472
2313.573,0.10340089
2314.348,0.10333046
2315.124,0.1033574
2315.901,0.10342354
2316.678,0.10344131
2317.455,0.10338458
2318.234,0.10330551
2319.012,0.10326608
2319.791,0.10327394
2320.571,0.10329805
2321.351,0.10333088
2322.131,0.1034068
2322.913,0.10355348
2323.694,0.10374311
2324.476,0.10390689
2325.259,0.10399365
2326.042,0.10400869
2326.826,0.10399955
2327.61,0.1040142
2328.395,0.10407169
2329.18,0.1041584
2329.966,0.10424206
2330.753,0.10429262
2331.54,0.1043002
2332.327,0.10428027
2333.115,0.10426429
2333.903,0.10427815
2334.692,0.10432369
2335.482,0.10437576
2336.272,0.10439703
2337.062,0.10436242
2337.854,0.1042792
2338.645,0.1041881
2339.437,0.10413553
2340.23,0.10413285
2341.023,0.10414913
2341.817,0.10414988
2342.611,0.10413698
2343.406,0.10414072
2344.201,0.10417569
2344.997,0.10421991
2345.794,0.10424135
2346.591,0.10423356
2347.388,0.1042169
2348.186,0.1042092
2348.985,0.10420596
2349.784,0.10419099
2350.583,0.10415651
2351.384,0.10411006
2352.184,0.1040724
2352.986,0.10407173
2353.787,0.10412476
2354.59,0.10421586
2355.393,0.10430102
2356.196,0.104343
2357.0,0.10434113
2357.804,0.10431874
2358.609,0.10428538
2359.415,0.10423036
2360.221,0.10415461
2361.028,0.10408993
2361.835,0.10407214
2362.643,0.1041004
2363.451,0.10413203
2364.26,0.10412151
2365.069,0.10405801
2365.879,0.10396743
2366.69,0.10388547
2367.501,0.103834
2368.312,0.1038155
2369.125,0.10382173
2369.937,0.10384576
2370.751,0.10388535
2371.564,0.10393147
2372.379,0.10395513
2373.194,0.10391793
2374.009,0.10380422
2374.825,0.1036491
2375.642,0.10352333
2376.459,0.10348081
2377.276,0.103514
2378.095,0.10356251
2378.913,0.10356723
2379.733,0.10351862
2380.553,0.10345582
2381.373,0.10342595
2382.194,0.10344829
2383.016,0.10350738
2383.838,0.10356933
2384.661,0.1035983
2385.484,0.10357008
2386.308,0.10348842
2387.132,0.10339308
2387.957,0.10334005
2388.783,0.10335838
2389.609,0.10342317
2390.435,0.10347708
2391.263,0.10347904
2392.09,0.10342881
2392.919,0.10335642
2393.748,0.10329977
2394.577,0.10329096
2395.407,0.10334428
2396.238,0.10344404
2397.069,0.10354928
2397.901,0.10362574
2398.733,0.10367494
2399.566,0.10372443
2400.399,0.10378345
2401.233,0.10382121
2402.068,0.10379937
2402.903,0.10372098
2403.739,0.1036364
2404.575,0.10359749
2405.412,0.10361169
2406.25,0.10364237
2407.088,0.10364967
2407.926,0.10362647
2408.766,0.10359557
2409.606,0.10357984
2410.446,0.10358048
2411.287,0.10358287
2412.128,0.10357509
2412.971,0.10355758
2413.813,0.10353796
2414.657,0.10352293
2415.5,0.10351624
2416.345,0.10351992
2417.19,0.10352985
2418.036,0.10353405
2418.882,0.10352615
2419.729,0.10351992
2420.576,0.10353761
2421.424,0.10358122
2422.272,0.10362364
2423.122,0.10363087
2423.971,0.10359209
2424.822,0.10352687
2425.673,0.10346571
2426.524,0.10343196
2427.376,0.10343497
2428.229,0.10346703
2429.082,0.10350081
2429.936,0.10350605
2430.791,0.10348361
2431.646,0.10348025
2432.501,0.10355192
2433.358,0.10370339
2434.214,0.10387085
2435.072,0.10397397
2435.93,0.10398561
2436.789,0.10394748
2437.648,0.10392454
2438.508,0.10394983
2439.368,0.10401082
2440.229,0.10407703
2441.091,0.10412821
2441.953,0.1041609
2442.816,0.10417731
2443.679,0.10417516
2444.543,0.10414774
2445.408,0.10409597
2446.273,0.10403836
2447.139,0.10400297
2448.006,0.10399997
2448.873,0.10400869
2449.74,0.10399809
2450.609,0.10396352
2451.478,0.1039324
2452.347,0.10393204
2453.217,0.10395904
2454.088,0.10398754
2454.959,0.10400194
2455.831,0.10401094
2456.704,0.10402792
2457.577,0.10404998
2458.451,0.10406596
2459.325,0.10407763
2460.2,0.1041005
2461.076,0.10413972
2461.952,0.10417596
2462.829,0.1041832
2463.707,0.10415801
2464.585,0.10412277
2465.464,0.10409991
2466.343,0.10409146
2467.223,0.10408934
2468.104,0.10409816
2468.985,0.10413723
2469.867,0.10421315
2470.749,0.10429901
2471.632,0.10435165
2472.516,0.10435064
2473.4,0.10431725
2474.285,0.10428983
2475.171,0.1042874
2476.057,0.10430117
2476.944,0.10431475
2477.832,0.10432115
2478.72,0.10431975
2479.608,0.10430719
2480.498,0.10427787
2481.388,0.10423637
2482.278,0.10420704
2483.17,0.1042263
2484.062,0.10431873
2484.954,0.10447291
2485.847,0.10464096
2486.741,0.10476839
2487.636,0.1048284
2488.531,0.10482794
2489.427,0.10478727
2490.323,0.1047256
2491.22,0.10466556
2492.118,0.10463743
2493.016,0.10466001
2493.915,0.10471886
2494.814,0.10477465
2495.715,0.10479818
2496.615,0.10479228
2497.517,0.10478164
2498.419,0.10478602
2499.322,0.1048096
2500.225,0.10485267
2501.129,0.1049211
2502.034,0.10501724
2502.939,0.10512282
2503.845,0.1051951
2504.752,0.10518905
2505.659,0.10509619
2506.567,0.10496821
2507.476,0.10489135
2508.385,0.1049217
2509.295,0.10503916
2510.206,0.10516961
2511.117,0.10525488
2512.029,0.10529812
2512.942,0.10534109
2513.855,0.10540841
2514.769,0.10548616
2515.683,0.10554785
2516.598,0.10557989
2517.514,0.10557865
2518.431,0.10554593
2519.348,0.10550308
2520.266,0.10549688
2521.184,0.1055653
2522.103,0.10569317
2523.023,0.10581881
2523.944,0.10589056
2524.865,0.10590528
2525.787,0.10589016
2526.709,0.10587654
2527.632,0.10590981
2528.556,0.10605278
2529.48,0.10633249
2530.406,0.10667917
2531.331,0.10695894
2532.258,0.10710332
2533.185,0.10717664
2534.113,0.10727033
2535.041,0.10734917
2535.971,0.10725624
2536.9,0.10690615
2537.831,0.10645419
2538.762,0.10622508
2539.694,0.10647219
2540.627,0.10718126
2541.56,0.10802541
2542.494,0.10854736
2543.428,0.10853837
2544.364,0.10822699
2545.3,0.10800295
2546.236,0.10804166
2547.174,0.10824124
2548.112,0.10845128
2549.05,0.10868132
2549.99,0.1090145
2550.93,0.10936132
2551.87,0.10942306
2552.812,0.10898049
2553.754,0.10815737
2554.697,0.10730289
2555.64,0.10673389
2556.585,0.10667612
2557.529,0.10732216
2558.475,0.1088075
2559.421,0.11107789
2560.368,0.11372749
2561.316,0.11594398
2562.264,0.11677428
2563.213,0.11577378
2564.163,0.11349769
2565.113,0.11113397
2566.065,0.10965619
2567.016,0.10937596
2567.969,0.10996906
2568.922,0.11076136
2569.876,0.11126717
2570.831,0.11156337
2571.786,0.11199104
2572.742,0.11263349
2573.699,0.11321373
2574.656,0.11339008
2575.615,0.11303225
2576.573,0.11222938
2577.533,0.11123538
2578.493,0.11047991
2579.454,0.11045648
2580.416,0.11144924
2581.378,0.11326411
2582.342,0.11513325
2583.305,0.11612118
2584.27,0.11597274
2585.235,0.11529652
2586.201,0.11473197
2587.168,0.11427507
2588.135,0.1134533
2589.103,0.11213986
2590.072,0.11108775
2591.042,0.11150231
2592.012,0.11436949
2592.983,0.11987199
2593.955,0.12593059
2594.927,0.12754267
2595.9,0.1228407
2596.874,0.11634251
2597.849,0.11178422
2598.824,0.10979467
2599.8,0.10981396
2600.777,0.11115088
2601.755,0.11326086
2602.733,0.11574399
2603.712,0.11810395
2604.692,0.11956364
2605.672,0.11946809
2606.653,0.11798841
2607.635,0.11598089
2608.618,0.11415772
2609.601,0.11272113
2610.585,0.11160812
2611.57,0.11086853
2612.556,0.11080227
2613.542,0.11174897
2614.529,0.11373551
2615.517,0.11622086
2616.505,0.11822209
2617.495,0.11904274
2618.485,0.11876057
2619.475,0.11764906
2620.467,0.11572083
2621.459,0.11326051
2622.452,0.11116054
2623.446,0.11029822
2624.44,0.11092393
2625.435,0.1125858
2626.431,0.11445793
2627.428,0.11601227
2628.426,0.11730474
2629.424,0.11835097
2630.423,0.11862597
2631.423,0.11763102
2632.423,0.11571147
2633.424,0.11371125
2634.426,0.11211359
2635.429,0.11091356
2636.432,0.11001389
2637.437,0.10946568
2638.442,0.10935442
2639.447,0.10960363
2640.454,0.10998502
2641.461,0.11034197
2642.469,0.11074888
2643.478,0.11135375
2644.488,0.11205777
2645.498,0.11242917
2646.509,0.11208282
2647.521,0.11119293
2648.534,0.11042945
2649.547,0.11040112
2650.561,0.1112683
2651.576,0.11267121
2652.592,0.11390331
2653.609,0.11436054
2654.626,0.11398838
2655.644,0.11327735
2656.663,0.11287959
2657.682,0.11319952
2658.703,0.114129
2659.724,0.11509079
2660.746,0.11564917
2661.768,0.11624085
2662.792,0.11793447
2663.816,0.12140619
2664.841,0.12597232
2665.867,0.12947975
2666.894,0.13054284
2667.921,0.13041228
2668.949,0.1306152
2669.978,0.130499
2671.008,0.12825119
2672.038,0.12416379
2673.07,0.12079853
2674.102,0.12008327
2675.135,0.12226499
2676.168,0.12593147
2677.203,0.12808033
2678.238,0.12639562
2679.274,0.12206655
2680.311,0.11792391
2681.349,0.11552275
2682.387,0.11495193
2683.426,0.11555661
2684.467,0.11642981
2685.507,0.11681663
2686.549,0.11642117
2687.591,0.11540869
2688.635,0.11425058
2689.679,0.11361577
2690.724,0.11421284
2691.769,0.11649742
2692.816,0.12021451
2693.863,0.12385055
2694.911,0.12509012
2695.96,0.12325061
2697.01,0.12026601
2698.06,0.11831732
2699.112,0.11821544
2700.164,0.11953767
2701.217,0.12111637
2702.27,0.1218238
2703.325,0.12151339
2704.38,0.12105019
2705.437,0.1215366
2706.494,0.12384033
2707.552,0.12851296
2708.61,0.13544693
2709.67,0.14285416
2710.73,0.14686778
2711.791,0.14489315
2712.853,0.13909238
2713.916,0.13333805
2714.98,0.12981515
2716.044,0.12939712
2717.109,0.1326473
2718.175,0.13969993
2719.242,0.149035
2720.31,0.15649732
2721.379,0.15811005
2722.448,0.15471165
2723.518,0.14965717
2724.589,0.1439697
2725.661,0.13683406
2726.734,0.12866965
2727.808,0.12133758
2728.882,0.1160655
2729.958,0.11285757
2731.034,0.11121284
2732.111,0.11063646
2733.188,0.11057837
2734.267,0.11030302
2735.347,0.10940258
2736.427,0.10853325
2737.508,0.10901859
2738.59,0.11150219
2739.673,0.11448642
2740.757,0.11416516
2741.841,0.10889968
2742.927,0.10195866
2744.013,0.09647523
2745.1,0.09305837
2746.188,0.09115606
2747.277,0.09009767
2748.367,0.08942244
2749.457,0.0889302
2750.549,0.08866515
2751.641,0.08888094
2752.734,0.08989308
2753.828,0.09171151
2754.923,0.09344793
2756.019,0.09332322
2757.115,0.09073685
2758.213,0.08743918
2759.311,0.08518434
2760.41,0.08442728
2761.51,0.08478356
2762.611,0.08542057
2763.713,0.08549204
2764.816,0.08482573
2765.919,0.08392513
2767.024,0.08328439
2768.129,0.0830325
2769.235,0.08298221
2770.342,0.08277804
2771.45,0.08212513
2772.559,0.08104602
2773.669,0.07987599
2774.779,0.07895964
2775.891,0.07841866
2777.003,0.07816761
2778.116,0.07805256
2779.23,0.07795636
2780.345,0.07779431
2781.461,0.07749019
2782.578,0.07706663
2783.696,0.07672943
2784.814,0.07673218
2785.934,0.07710483
2787.054,0.07747834
2788.175,0.07727035
2789.297,0.07630202
2790.42,0.0750085
2791.544,0.07388208
2792.669,0.07310378
2793.795,0.07262376
2794.922,0.07230905
2796.049,0.072018
2797.178,0.07166263
2798.307,0.07129496
2799.437,0.07111786
2800.568,0.07134342
2801.7,0.07198078
2802.833,0.07267996
2803.967,0.0728585
2805.102,0.07226638
2806.238,0.07126524
2807.374,0.07032019
2808.512,0.06959716
2809.65,0.06905932
2810.789,0.068673
2811.93,0.06845348
2813.071,0.06837399
2814.213,0.06831648
2815.356,0.06815678
2816.5,0.06789631
2817.645,0.06766121
2818.791,0.06754181
2819.937,0.06746047
2821.085,0.06723166
2822.233,0.06677032
2823.383,0.06619878
2824.533,0.06571785
2825.685,0.06542818
2826.837,0.06527677
2827.99,0.06513273
2829.144,0.06491542
2830.299,0.06465863
2831.455,0.06445252
2832.612,0.06434422
2833.77,0.06429992
2834.929,0.06423968
2836.089,0.06409051
2837.25,0.06381991
2838.411,0.0634476
2839.574,0.06303903
2840.737,0.0626797
2841.902,0.06243269
2843.067,0.06229418
2844.234,0.06219063
2845.401,0.06203545
2846.569,0.06179486
2847.739,0.06150335
2848.909,0.06122915
2850.08,0.06103003
2851.252,0.06092223
2852.425,0.0608719
2853.599,0.06080981
2854.774,0.06066833
2855.95,0.06043538
2857.127,0.06017504
2858.305,0.05996514
2859.484,0.05981843
2860.664,0.05967856
2861.844,0.05948916
2863.026,0.0592624
2864.209,0.05906812
2865.392,0.05895472
2866.577,0.05889613
2867.763,0.05882374
2868.949,0.0586997
2870.137,0.05854359
2871.325,0.05839226
2872.515,0.05825086
2873.705,0.05809234
2874.897,0.05790224
2876.089,0.05770724
2877.283,0.05754866
2878.477,0.05743545
2879.673,0.05733446
2880.869,0.05720126
2882.066,0.05701297
2883.265,0.05678349
2884.464,0.05656491
2885.664,0.05643584
2886.866,0.05646179
2888.068,0.05662189
2889.271,0.05676829
2890.476,0.0567078
2891.681,0.05636502
2892.887,0.05586077
2894.095,0.05541209
2895.303,0.05514763
2896.512,0.05502398
2897.723,0.05491785
2898.934,0.05477198
2900.146,0.05463523
2901.36,0.05458262
2902.574,0.05462232
2903.789,0.05468099
2905.006,0.05466986
2906.223,0.05455594
2907.441,0.05437386
2908.661,0.05418055
2909.881,0.05400767
2911.103,0.05386041
2912.325,0.05375928
2913.549,0.05375602
2914.773,0.0538808
2915.999,0.05407293
2917.225,0.05418868
2918.453,0.05410615
2919.681,0.05383047
2920.911,0.05348131
2922.142,0.05317654
2923.373,0.05293763
2924.606,0.05270604
2925.84,0.05243856
2927.075,0.05216612
2928.31,0.05195554
2929.547,0.05183894
2930.785,0.05179223
2932.024,0.05177186
2933.264,0.05175888
2934.505,0.05176015
2935.747,0.05178091
2936.99,0.05180973
2938.234,0.05182294
2939.479,0.05178768
2940.726,0.05167372
2941.973,0.05149956
2943.221,0.05138028
2944.471,0.05148261
2945.721,0.05186277
2946.973,0.05233619
2948.225,0.05256491
2949.479,0.05234288
2950.733,0.05180942
2951.989,0.05134459
2953.246,0.05122548
2954.504,0.05138518
2955.763,0.05150262
2957.023,0.05131821
2958.284,0.05085859
2959.546,0.05037226
2960.809,0.05008741
2962.073,0.05004789
2963.339,0.05014348
2964.605,0.05024418
2965.873,0.05028578
2967.141,0.05025425
2968.411,0.05015241
2969.681,0.05002638
2970.953,0.04999608
2972.226,0.05018923
2973.5,0.05060397
2974.775,0.0510516
2976.051,0.05126844
2977.328,0.05111149
2978.607,0.05066332
2979.886,0.05015348
2981.167,0.04977417
2982.448,0.04955696
2983.731,0.04940608
2985.015,0.04923533
2986.3,0.04907323
2987.586,0.04904163
2988.873,0.04923031
2990.161,0.04958377
2991.45,0.04991865
2992.74,0.05006109
2994.032,0.04997242
2995.324,0.04975807
2996.618,0.04956952
2997.913,0.04950216
2999.209,0.04956832
3000.506,0.04972166
3001.804,0.04987432
3003.103,0.04991589
3004.404,0.04977443
3005.705,0.04948924
3007.008,0.04920596
3008.312,0.04906737
3009.616,0.04910465
3010.922,0.04923949
3012.23,0.04937201
3013.538,0.0494506
3014.847,0.04947117
3016.158,0.04944391
3017.469,0.04938104
3018.782,0.04930428
3020.096,0.0492423
3021.411,0.04920916
3022.727,0.04919369
3024.044,0.0491855
3025.363,0.0492141
3026.683,0.04936169
3028.003,0.04972194
3029.325,0.05030883
3030.648,0.05097753
3031.972,0.05145586
3033.298,0.05151122
3034.624,0.05113036
3035.952,0.05053934
3037.281,0.05003673
3038.611,0.04979574
3039.942,0.04980693
3041.274,0.04997422
3042.607,0.05021851
3043.942,0.05047511
3045.278,0.05064624
3046.615,0.05062934
3047.953,0.05040963
3049.292,0.05009207
3050.632,0.04981769
3051.974,0.04965682
3053.317,0.04958976
3054.661,0.04957213
3056.006,0.04959268
3057.352,0.0496677
3058.7,0.04981412
3060.048,0.0500481
3061.398,0.05038162
3062.749,0.05078671
3064.101,0.05115941
3065.455,0.05134777
3066.809,0.05125469
3068.165,0.05092329
3069.522,0.05051281
3070.88,0.05018315
3072.239,0.05000072
3073.6,0.04994661
3074.962,0.04999049
3076.325,0.05012634
3077.689,0.05033651
3079.054,0.0505487
3080.421,0.05066172
3081.788,0.0506339
3083.157,0.05053732
3084.527,0.05049574
3085.899,0.05055906
3087.271,0.05065595
3088.645,0.05068008
3090.02,0.05060503
3091.396,0.05049499
3092.774,0.0504203
3094.153,0.05040314
3095.532,0.05045691
3096.914,0.05063154
3098.296,0.05095977
3099.679,0.05135473
3101.064,0.05161574
3102.45,0.05158196
3103.837,0.05127852
3105.226,0.05088921
3106.616,0.05058966
3108.007,0.05042774
3109.399,0.05035332
3110.792,0.05031393
3112.187,0.05029952
3113.583,0.05032192
3114.98,0.05038288
3116.378,0.05046756
3117.778,0.05055189
3119.179,0.05060602
3120.581,0.05060733
3121.985,0.05056225
3123.389,0.05050729
3124.795,0.05047772
3126.202,0.05047896
3127.611,0.05049448
3129.02,0.05051286
3130.431,0.0505382
3131.844,0.05057458
3133.257,0.05061081
3134.672,0.05063381
3136.088,0.05065216
3137.505,0.05069241
3138.924,0.05077385
3140.344,0.05088917
3141.765,0.05100486
3143.187,0.05108231
3144.611,0.05110108
3146.036,0.05106987
3147.462,0.05102158
3148.89,0.05099348
3150.319,0.05100523
3151.749,0.05104995
3153.18,0.05110428
3154.613,0.05114973
3156.047,0.05118804
3157.482,0.05123758
3158.919,0.05131558
3160.357,0.05142438
3161.796,0.05155189
3163.236,0.05167898
3164.678,0.05178669
3166.121,0.05185995
3167.566,0.05189321
3169.011,0.0518945
3170.458,0.05187718
3171.907,0.0518481
3173.356,0.05181867
3174.807,0.05184135
3176.26,0.05201916
3177.713,0.05242693
3179.168,0.05299173
3180.624,0.05348164
3182.082,0.05366342
3183.541,0.05348956
3185.001,0.05312802
3186.463,0.05281625
3187.926,0.05270243
3189.39,0.05281419
3190.856,0.05311047
3192.323,0.05350327
3193.791,0.05385213
3195.26,0.05401444
3196.731,0.05394861
3198.204,0.05375976
3199.677,0.05361851
3201.152,0.05362146
3202.629,0.05372493
3204.106,0.05380444
3205.585,0.0537806
3207.066,0.05370851
3208.548,0.05375855
3210.031,0.05409873
3211.515,0.05476908
3213.001,0.05563948
3214.488,0.05646896
3215.977,0.05701021
3217.467,0.05710679
3218.958,0.05676719
3220.451,0.05618904
3221.945,0.05567548
3223.441,0.05544697
3224.938,0.05548573
3226.436,0.05557621
3227.936,0.05552483
3229.437,0.05534098
3230.939,0.05519938
3232.443,0.05523931
3233.948,0.05542361
3235.455,0.05559368
3236.963,0.05564113
3238.472,0.05560946
3239.983,0.05563706
3241.495,0.05581912
3243.008,0.05612628
3244.523,0.05644782
3246.04,0.05670303
3247.558,0.05690754
3249.077,0.05714207
3250.598,0.05747563
3252.12,0.05791787
3253.643,0.05841555
3255.168,0.05886365
3256.694,0.05912302
3258.222,0.05907259
3259.751,0.05869406
3261.282,0.05812062
3262.814,0.05758841
3264.347,0.05731114
3265.882,0.05736636
3267.418,0.05766765
3268.956,0.05802627
3270.495,0.05825311
3272.036,0.0582513
3273.578,0.05806119
3275.122,0.05782655
3276.667,0.05769503
3278.213,0.05772852
3279.761,0.05789483
3281.31,0.05812902
3282.861,0.0583886
3284.413,0.05864913
3285.967,0.05886943
3287.522,0.05899784
3289.079,0.05903945
3290.637,0.05910678
3292.196,0.05935506
3293.757,0.05982456
3295.32,0.06034514
3296.884,0.0606374
3298.449,0.06055035
3300.016,0.06021287
3301.585,0.05993228
3303.155,0.05992497
3304.726,0.06014356
3306.299,0.06035966
3307.873,0.06039806
3309.449,0.06028259
3311.026,0.06017298
3312.605,0.06019057
3314.185,0.06031686
3315.767,0.06044823
3317.351,0.06052383
3318.936,0.06058861
3320.522,0.06075047
3322.11,0.0611023
3323.699,0.06167434
3325.29,0.0624089
3326.882,0.06313763
3328.476,0.06360699
3330.072,0.06360448
3331.669,0.06312316
3333.267,0.0624029
3334.867,0.0617717
3336.469,0.06142358
3338.072,0.06134257
3339.676,0.06141499
3341.282,0.06157304
3342.89,0.06182063
3344.499,0.06216363
3346.11,0.0625627
3347.722,0.06295152
3349.336,0.06326631
3350.952,0.06344867
3352.569,0.06345149
3354.187,0.06327621
3355.807,0.06300455
3357.429,0.06277583
3359.052,0.06271991
3360.677,0.06289574
3362.303,0.0632643
3363.931,0.06370148
3365.56,0.06405533
3367.191,0.0642299
3368.824,0.06423461
3370.458,0.06415128
3372.093,0.06405049
3373.731,0.06394746
3375.37,0.06383683
3377.01,0.06374665
3378.652,0.06373678
3380.296,0.06384692
3381.941,0.0640603
3383.588,0.06431787
3385.236,0.06455283
3386.886,0.0647141
3388.538,0.06478585
3390.191,0.06481409
3391.846,0.06489979
3393.502,0.06512484
3395.16,0.06546417
3396.82,0.06579551
3398.481,0.06602981
3400.144,0.06622751
3401.809,0.06654418
3403.475,0.06703593
3405.143,0.06753872
3406.812,0.06778034
3408.483,0.06762655
3410.156,0.06720752
3411.83,0.06680087
3413.506,0.06660598
3415.183,0.06664086
3416.862,0.06682537
3418.543,0.06710741
3420.226,0.06747816
3421.91,0.06789273
3423.596,0.06823286
3425.283,0.06838382
3426.972,0.06834272
3428.663,0.06823412
3430.355,0.06821016
3432.049,0.06834232
3433.745,0.06861641
3435.442,0.06901849
3437.141,0.06958219
3438.842,0.07031653
3440.545,0.07109201
3442.249,0.0716442
3443.954,0.07174163
3445.662,0.07137654
3447.371,0.0707884
3449.082,0.07028762
3450.794,0.0700422
3452.509,0.07001228
3454.224,0.07006035
3455.942,0.07010328
3457.661,0.07016676
3459.382,0.07032409
3461.105,0.07059991
3462.829,0.07092494
3464.556,0.07117687
3466.283,0.07126949
3468.013,0.07121652
3469.744,0.07111357
3471.477,0.07105704
3473.212,0.07108107
3474.948,0.07116921
3476.686,0.0713033
3478.426,0.07147413
3480.168,0.07165329
3481.911,0.07179942
3483.656,0.0719284
3485.403,0.07215465
3487.152,0.07259963
3488.902,0.07322692
3490.654,0.07380039
3492.408,0.07405577
3494.164,0.07392748
3495.921,0.07359657
3497.68,0.07331601
3499.441,0.07321307
3501.204,0.07326473
3502.968,0.07340894
3504.734,0.07361586
3506.502,0.07385637
3508.272,0.07406357
3510.043,0.07417028
3511.817,0.07417779
3513.592,0.07415801
3515.368,0.07419054
3517.147,0.07431414
3518.927,0.07452582
3520.71,0.07478544
3522.494,0.07501298
3524.28,0.07512785
3526.067,0.0751447
3527.857,0.07522272
3529.648,0.07555785
3531.441,0.07618206
3533.236,0.07687893
3535.032,0.07733351
3536.831,0.07738638
3538.631,0.07714496
3540.433,0.07685897
3542.237,0.07670706
3544.043,0.07670044
3545.851,0.07675559
3547.66,0.07681504
3549.471,0.07688695
3551.284,0.07699885
3553.099,0.07714958
3554.916,0.07731123
3556.735,0.07745775
3558.555,0.07758061
3560.378,0.0776882
3562.202,0.07780289
3564.028,0.07795486
3565.856,0.07816284
3567.686,0.0784111
3569.518,0.07864952
3571.351,0.07882368
3573.187,0.07890971
3575.024,0.07892747
3576.863,0.07893187
3578.704,0.07899305
3580.547,0.07916506
3582.392,0.07944467
3584.239,0.07975421
3586.088,0.07998852
3587.938,0.08010825
3589.791,0.08019349
3591.645,0.0803795
3593.501,0.08071659
3595.359,0.08109351
3597.22,0.08131914
3599.082,0.08129154
3600.946,0.08108435
3602.811,0.08086906
3604.679,0.0807684
3606.549,0.08079457
3608.421,0.0809142
3610.294,0.08113058
3612.17,0.08146463
3614.047,0.08186606
3615.926,0.08219402
3617.808,0.08232192
3619.691,0.08225807
3621.576,0.08214193
3623.463,0.08211546
3625.353,0.08220886
3627.244,0.08235035
3629.137,0.08246566
3631.032,0.08254526
3632.929,0.08262395
3634.828,0.08272649
3636.729,0.08284662
3638.632,0.08296975
3640.537,0.08310013
3642.444,0.08326343
3644.353,0.08348561
3646.263,0.08376663
3648.176,0.08406645
3650.091,0.08431851
3652.008,0.08446848
3653.927,0.08451382
3655.848,0.08451013
3657.771,0.08453473
3659.696,0.08463554
3661.623,0.08480605
3663.552,0.08500535
3665.483,0.08519805
3667.416,0.08537468
3669.351,0.085544
3671.288,0.08572066
3673.227,0.08592595
3675.168,0.0861885
3677.111,0.0865222
3679.057,0.08689843
3681.004,0.08724747
3682.953,0.08749921
3684.905,0.08762646
3686.858,0.08765419
3688.814,0.08763832
3690.771,0.08764293
3692.731,0.08772355
3694.693,0.08790877
3696.656,0.08818393
3698.622,0.08849817
3700.59,0.08879826
3702.56,0.08905676
3704.532,0.08927026
3706.507,0.08944551
3708.483,0.08960065
3710.461,0.08977296
3712.442,0.09000313
3714.425,0.09029967
3716.409,0.09062142
3718.396,0.09090299
3720.385,0.09110257
3722.376,0.09123115
3724.37,0.09134217
3726.365,0.09149236
3728.362,0.09170541
3730.362,0.09196506
3732.364,0.09224031
3734.368,0.09252156
3736.374,0.09283154
3738.382,0.0931973
3740.392,0.09361236
3742.405,0.09403212
3744.419,0.09440446
3746.436,0.09470494
3748.455,0.09494117
3750.476,0.09513077
3752.499,0.0952846
3754.525,0.09541054
3756.553,0.09552507
3758.582,0.09565484
3760.614,0.09582604
3762.649,0.09604842
3764.685,0.09630968
3766.724,0.09658467
3768.764,0.0968524
3770.807,0.09711065
3772.853,0.09737511
3774.9,0.09766306
3776.95,0.09797408
3779.001,0.09828297
3781.056,0.09855423
3783.112,0.09877185
3785.17,0.09895567
3787.231,0.09915051
3789.294,0.09939392
3791.359,0.09969342
3793.427,0.10003034
3795.496,0.10038065
3797.568,0.10073329
3799.643,0.10109067
3801.719,0.10145656
3803.798,0.10182549
3805.879,0.10218229
3807.962,0.10251106
3810.048,0.10280597
3812.135,0.10307482
3814.225,0.10333259
3816.318,0.10358875
3818.412,0.10383992
3820.509,0.10407696
3822.609,0.10430094
3824.71,0.1045306
3826.814,0.10479352
3828.92,0.10510544
3831.029,0.1054557
3833.139,0.10581298
3835.252,0.10614682
3837.368,0.10644591
3839.486,0.10671951
3841.606,0.10698833
3843.728,0.10727499
3845.853,0.10759747
3847.98,0.10795912
3850.109,0.10834112
3852.241,0.10870907
3854.375,0.10903635
3856.512,0.10932471
3858.65,0.10960142
3860.792,0.10989776
3862.935,0.11022879
3865.081,0.11058885
3867.229,0.11095881
3869.38,0.11131613
3871.533,0.11164571
3873.689,0.11194837
3875.846,0.11223824
3878.007,0.11253054
3880.169,0.11283065
3882.334,0.11313573
3884.502,0.11344471
3886.672,0.11376176
3888.844,0.11409225
3891.019,0.11443884
3893.196,0.11479938
3895.375,0.11516165
3897.557,0.11550611
3899.742,0.11582057
3901.929,0.11611409
3904.118,0.11640979
3906.31,0.11671861
3908.504,0.11702648
3910.7,0.11731531
3912.9,0.11759303
3915.101,0.11789534
3917.305,0.11825407
3919.512,0.11866946
3921.721,0.11911193
3923.932,0.11954482
3926.146,0.11994287
3928.363,0.12030014
3930.581,0.12063063
3932.803,0.12096086
3935.027,0.12131538
3937.253,0.12170305
3939.482,0.12211641
3941.714,0.12254578
3943.948,0.12299165
3946.184,0.12345886
3948.423,0.12394014
3950.665,0.12441641
3952.909,0.12487727
3955.156,0.1253369
3957.405,0.12582412
3959.657,0.12635501
3961.911,0.12691535
3964.168,0.12747248
3966.427,0.12800392
3968.689,0.12851242
3970.954,0.12901557
3973.221,0.12952955
3975.491,0.13006014
3977.763,0.13060296
3980.038,0.1311449
3982.315,0.13166636
3984.595,0.13214685
3986.878,0.13257204
3989.163,0.1329401
3991.451,0.13326538
3993.742,0.13357864
3996.035,0.1339185
3998.33,0.1343143
4000.629,0.13476973
4002.93,0.13526059
4005.233,0.13574829
4007.54,0.13620099
4009.849,0.1366082
4012.16,0.13698521
4014.475,0.1373651
4016.791,0.13777781
4019.111,0.13822697
4021.433,0.1386873
4023.758,0.13913012
4026.086,0.13955228
4028.416,0.13998216
4030.749,0.1404554
4033.085,0.14098833
4035.423,0.14156976
4037.764,0.14217262
4040.108,0.14277005
4042.454,0.14334585
4044.804,0.14390272
4047.155,0.14446261
4049.51,0.14505166
4051.867,0.14567707
4054.228,0.14631654
4056.59,0.14693878
4058.956,0.14753668
4061.324,0.14813946
4063.695,0.14878257
4066.069,0.1494697
4068.446,0.15016708
4070.825,0.15083977
4073.207,0.15149011
4075.592,0.15215569
4077.98,0.15287009
4080.371,0.15362935
4082.764,0.15439825
4085.16,0.15514927
4087.559,0.15589084
4089.961,0.15665598
4092.365,0.15746415
4094.773,0.15829787
4097.183,0.15912084
4099.596,0.1599133
4102.012,0.16068464
4104.43,0.16145305
4106.852,0.16222243
4109.276,0.16298296
4111.703,0.1637327
4114.133,0.16448991
4116.566,0.1652838
4119.002,0.16613522
4121.441,0.16704384
4123.882,0.16798977
4126.327,0.16894497
4128.774,0.16988756
4131.224,0.17081139
4133.677,0.17172217
4136.133,0.17262365
4138.592,0.17351141
4141.054,0.17438271
4143.519,0.17524799
4145.987,0.17612346
4148.457,0.1770132
4150.931,0.17791005
4153.407,0.17881752
4155.887,0.17976246
4158.369,0.18077431
4160.854,0.18185035
4163.343,0.18295096
4165.834,0.1840339
4168.328,0.18509062
4170.826,0.18614286
4173.326,0.18721274
4175.829,0.18830057
4178.335,0.18939439
4180.844,0.19049108
4183.356,0.19161326
4185.872,0.19281097
4188.39,0.19415839
4190.911,0.19575347
4193.435,0.19772213
4195.963,0.20022598
4198.493,0.20345594
4201.026,0.20759632
4203.563,0.21276247
4206.102,0.21894866
4208.645,0.22602256
4211.19,0.2337717
4213.739,0.24196954
4216.291,0.25043027
4218.846,0.25902951
4221.404,0.26767479
4223.965,0.27622391
4226.529,0.28441964
4229.096,0.29192168
4231.666,0.29838168
4234.24,0.30342692
4236.816,0.30664416
4239.396,0.30776037
4241.979,0.30674539
4244.565,0.30340933
4247.154,0.29711691
4249.746,0.28774994
4252.341,0.27708334
4254.94,0.26828237
4257.542,0.26400752
4260.146,0.26538147
4262.754,0.27190696
4265.366,0.28144687
4267.98,0.29069543
4270.598,0.29703688
4273.219,0.30021639
4275.843,0.30152684
4278.47,0.30207007
4281.1,0.30238333
4283.734,0.30288219
4286.371,0.30384749
4289.011,0.30504297
4291.655,0.30576053
4294.301,0.30546374
4296.951,0.3043201
4299.604,0.30300519
4302.261,0.30205502
4304.92,0.30144184
4307.583,0.30066599
4310.25,0.29922292
4312.919,0.29706009
4315.592,0.29462556
4318.268,0.29248963
4320.948,0.29091751
4323.631,0.28975989
4326.317,0.28868709
4329.006,0.28751105
4331.699,0.28629752
4334.395,0.2852327
4337.095,0.28444815
4339.797,0.28397531
4342.504,0.28379532
4345.213,0.28387814
4347.926,0.28417707
4350.642,0.28463183
4353.362,0.28519711
4356.085,0.28585784
4358.811,0.28660992
4361.541,0.28743388
4364.275,0.28829801
4367.011,0.2891813
4369.751,0.29007898
4372.495,0.29099995
4375.242,0.29197476
4377.992,0.29307063
4380.746,0.29436834
4383.504,0.29590319
4386.264,0.29762128
4389.029,0.29940741
4391.796,0.30116514
4394.567,0.3028682
4397.342,0.30453837
4400.12,0.30619211
4402.902,0.30782204
4405.687,0.30942465
4408.476,0.31101841
4411.268,0.31262887
4414.064,0.31425578
4416.863,0.31587616
4419.666,0.31747347
4422.472,0.31905601
4425.282,0.32063506
4428.096,0.32219902
4430.913,0.32372033
4433.734,0.32519232
4436.558,0.32664367
4439.386,0.32810866
4442.217,0.32959287
4445.052,0.33107735
4447.891,0.33254603
4450.733,0.33399195
4453.579,0.3353973
4456.428,0.33671961
4459.281,0.33791561
4462.138,0.33898699
4464.998,0.33999641
4467.863,0.34102777
4470.73,0.34213055
4473.602,0.34329
4476.477,0.3444355
4479.355,0.34548001
4482.238,0.3463781
4485.124,0.34717048
4488.014,0.34796575
4490.908,0.34886333
4493.805,0.34988228
4496.706,0.35095965
4499.611,0.35201108
4502.519,0.35299006
4505.431,0.35390319
4508.347,0.35477921
4511.267,0.35564463
4514.191,0.35653027
4517.118,0.35748154
4520.049,0.3585346
4522.984,0.35968016
4525.923,0.36086524
4528.865,0.36203557
4531.812,0.36316451
4534.762,0.36425477
4537.716,0.36533088
4540.674,0.36641574
4543.635,0.36751446
4546.601,0.36862137
4549.57,0.36974005
4552.543,0.37088856
4555.521,0.37207953
4558.502,0.3732966
4561.487,0.37449863
4564.475,0.37565286
4567.468,0.3767652
4570.465,0.37786838
4573.465,0.3789925
4576.47,0.38014419
4579.478,0.38132067
4582.491,0.38252374
4585.507,0.38374689
4588.527,0.38495232
4591.551,0.38607321
4594.58,0.38707098
4597.612,0.38801165
4600.648,0.38905466
4603.688,0.39031963
4606.732,0.39176537
4609.781,0.393212
4612.833,0.39451196
4615.889,0.39568624
4618.949,0.3968798
4622.014,0.39818676
4625.082,0.39955373
4628.155,0.40085614
4631.231,0.4020399
4634.312,0.4031793
4637.397,0.40439147
4640.485,0.40572774
4643.578,0.40716101
4646.675,0.40862979
4649.777,0.41006583
4652.882,0.41140959
4655.991,0.41263654
4659.105,0.41379084
4662.223,0.41497727
4665.345,0.41627849
4668.471,0.41768497
4671.601,0.41912668
4674.735,0.42056926
4677.874,0.4220438
4681.017,0.42357109
4684.164,0.42509107
4687.315,0.42651227
4690.471,0.42782204
4693.63,0.42911339
4696.794,0.4304944
4699.962,0.43196916
4703.135,0.43344053
4706.312,0.43481038
4709.493,0.43607198
4712.678,0.43731266
4715.868,0.43865307
4719.062,0.44017116
4722.26,0.44184521
4725.463,0.4435427
4728.669,0.44509408
4731.881,0.44641861
4735.096,0.44759227
4738.316,0.44877256
4741.541,0.4500575
4744.769,0.45141722
4748.002,0.45274547
4751.24,0.45397624
4754.482,0.45513773
4757.728,0.45630317
4760.979,0.45751324
4764.234,0.45875447
4767.494,0.45999785
4770.758,0.46125327
4774.026,0.4625772
4777.299,0.46400518
4780.577,0.46545967
4783.859,0.46678487
4787.145,0.46788951
4790.436,0.46884365
4793.732,0.46981757
4797.032,0.47094412
4800.336,0.47223645
4803.645,0.4736181
4806.959,0.4749903
4810.277,0.47627654
4813.6,0.47743869
4816.927,0.47848206
4820.259,0.47944536
4823.596,0.48039797
4826.937,0.4814423
4830.283,0.48269267
4833.633,0.48420819
4836.988,0.48589445
4840.348,0.48749437
4843.712,0.48874373
4847.081,0.48957066
4850.455,0.49014285
4853.833,0.49073594
4857.216,0.49154385
4860.604,0.49258978
4863.996,0.49379068
4867.393,0.49506497
4870.795,0.49635169
4874.202,0.49757827
4877.613,0.49868343
4881.03,0.49968711
4884.451,0.5007005
4887.876,0.5018381
4891.307,0.50311134
4894.742,0.50440252
4898.182,0.50552704
4901.627,0.50636104
4905.077,0.50693837
4908.532,0.50743515
4911.991,0.50808866
4915.456,0.50908189
4918.925,0.51041473
4922.399,0.5118748
4925.878,0.51319125
4929.362,0.51424648
4932.851,0.51513355
4936.345,0.51603168
4939.844,0.51707111
4943.347,0.51832281
4946.856,0.51982557
4950.37,0.52150096
4953.888,0.52306837
4957.412,0.52418575
4960.941,0.52474883
4964.474,0.52501008
4968.013,0.52537333
4971.556,0.5260865
4975.105,0.52711001
4978.659,0.52823123
4982.218,0.5292718
4985.782,0.53021495
4989.351,0.53119671
4992.925,0.53235167
4996.504,0.53360148
5000.088,0.53468984
5003.678,0.53556761
5007.272,0.53668508
5010.872,0.53867021
5014.477,0.54161341
5018.087,0.54471022
5021.703,0.54672249
5025.323,0.54698366
5028.949,0.54596473
5032.58,0.54475782
5036.216,0.54417469
5039.857,0.54438271
5043.504,0.5451307
5047.156,0.54612163
5050.813,0.54720674
5054.475,0.54833285
5058.143,0.54941986
5061.816,0.55037314
5065.495,0.55126141
5069.179,0.55243212
5072.868,0.55427677
5076.562,0.55675884
5080.262,0.55920189
5083.967,0.56073486
5087.678,0.56105482
5091.394,0.56069999
5095.115,0.56052723
5098.842,0.56102073
5102.574,0.5620903
5106.312,0.5633652
5110.055,0.56455207
5113.804,0.56556195
5117.558,0.56643607
5121.318,0.56722938
5125.083,0.56802048
5128.854,0.56906409
5132.63,0.57086704
5136.412,0.57386782
5140.199,0.57779798
5143.992,0.58138462
5147.791,0.58305859
5151.595,0.58230698
5155.405,0.5802165
5159.22,0.57850416
5163.041,0.57817018
5166.868,0.57905466
5170.7,0.58035822
5174.538,0.58141138
5178.382,0.58212162
5182.231,0.5829542
5186.086,0.58455777
5189.947,0.58724202
5193.814,0.59069806
5197.686,0.59428062
5201.564,0.59758376
5205.448,0.60052259
5209.338,0.60276144
5213.233,0.60347085
5217.134,0.60220235
5221.041,0.5999234
5224.954,0.59855472
5228.873,0.59928583
5232.798,0.60152457
5236.728,0.60356178
5240.665,0.60424362
5244.607,0.60386274
5248.555,0.60343259
5252.51,0.60357575
5256.47,0.60433596
5260.436,0.60565321
5264.408,0.60754158
5268.386,0.6098186
5272.37,0.61208413
5276.36,0.61419073
5280.356,0.61648361
5284.358,0.61922201
5288.367,0.62183554
5292.381,0.62315487
5296.401,0.62262404
5300.428,0.62103211
5304.46,0.61978504
5308.499,0.61968063
5312.544,0.62056098
5316.595,0.62184404
5320.652,0.6230487
5324.715,0.6239274
5328.785,0.62467552
5332.86,0.62632824
5336.942,0.63047804
5341.031,0.63783218
5345.125,0.64663187
5349.226,0.65285623
5353.333,0.65326944
5357.446,0.64863727
5361.566,0.64288867
5365.692,0.63943154
5369.824,0.63904296
5373.962,0.64045431
5378.107,0.64210383
5382.259,0.64337962
5386.417,0.64459054
5390.581,0.64620258
5394.751,0.64841015
5398.928,0.6514293
5403.112,0.65603078
5407.302,0.66343638
5411.498,0.67418382
5415.701,0.6865878
5419.911,0.6964906
5424.127,0.7001116
5428.349,0.69811157
5432.579,0.6953662
5436.814,0.69649836
5441.057,0.70290542
5445.305,0.71354737
5449.561,0.72765992
5453.823,0.74628744
5458.092,0.7707745
5462.368,0.8000715
5466.65,0.83056245
5470.939,0.85963325
5475.234,0.88866297
5479.537,0.92116418
5483.846,0.95968627
5488.162,0.010069083
5492.484,0.0106924403
5496.814,0.011575653
5501.15,0.012852425
5505.493,0.0146990026
5509.843,0.0173683736
5514.2,0.0204637573
5518.564,0.0220332207
5522.934,0.0202103829
5527.312,0.0158883537
5531.696,0.0117921096
5536.087,0.85370173
5540.486,0.60329532
5544.891,0.4226061
5549.303,0.29633266
5553.723,0.21142812
5558.149,0.15916129
5562.582,0.13364797
5567.023,0.12677014
5571.47,0.13225903
5575.925,0.14572562
5580.387,0.16189771
5584.856,0.17862186
5589.332,0.19484491
5593.815,0.21028199
5598.305,0.22486303
5602.803,0.23854501
5607.307,0.2513338
5611.819,0.26324944
5616.339,0.27426403
5620.865,0.28431199
5625.399,0.29340039
5629.94,0.30167662
5634.489,0.30941611
5639.044,0.31699458
5643.607,0.32471773
5648.178,0.332569
5652.756,0.34022213
5657.341,0.34731738
5661.934,0.35371158
5666.534,0.35952554
5671.142,0.36498693
5675.757,0.37022287
5680.379,0.37518973
5685.01,0.37976873
5689.647,0.38392775
5694.293,0.38783155
5698.945,0.39180794
5703.606,0.39615121
5708.274,0.40089154
5712.949,0.40573431
5717.633,0.41029256
5722.324,0.41440252
5727.022,0.41817348
5731.729,0.42175419
5736.443,0.42514558
5741.165,0.42823087
5745.894,0.43093648
5750.631,0.4333368
5755.377,0.43565247
5760.13,0.43819926
5764.89,0.44125163
5769.659,0.44477976
5774.436,0.44835682
5779.22,0.45149534
5784.012,0.45406068
5788.813,0.45633191
5793.621,0.45874666
5798.437,0.46156286
5803.262,0.46472013
5808.094,0.46797957
5812.934,0.47111995
5817.782,0.47400584
5822.639,0.47657634
5827.503,0.47884692
5832.376,0.48093495
5837.257,0.48305787
5842.146,0.48546128
5847.043,0.48828421
5851.948,0.49141875
5856.862,0.49449598
5861.783,0.49711586
5866.714,0.49915697
5871.652,0.50084972
5876.598,0.50253732
5881.553,0.50433173
5886.517,0.50601336
5891.488,0.50736425
5896.468,0.50855861
5901.457,0.51009102
5906.454,0.51229138
5911.459,0.51498971
5916.473,0.51769277
5921.495,0.52003648
5926.526,0.52203621
5931.565,0.52392491
5936.613,0.52577853
5941.67,0.52741912
5946.735,0.52874279
5951.809,0.52991299
5956.891,0.53117199
5961.982,0.53265654
5967.082,0.53442742
5972.19,0.53651412
5977.307,0.53873179
5982.433,0.54052983
5987.568,0.5413493
5992.711,0.5413187
5997.864,0.54130661
6003.025,0.54203433
6008.195,0.54335731
6013.374,0.5445705
6018.562,0.5453506
6023.759,0.54612031
6028.964,0.54731125
6034.179,0.54864559
6039.403,0.54940115
6044.636,0.5494892
6049.878,0.55003327
6055.129,0.55204
6060.389,0.55498007
6065.658,0.55730757
6070.936,0.55784417
6076.224,0.55684
6081.52,0.55579967
6086.826,0.55607353
6092.141,0.55790623
6097.466,0.56061419
6102.8,0.56309273
6108.143,0.5643944
6113.495,0.56442633
6118.857,0.56407617
6124.228,0.56439051
6129.609,0.56578764
6134.999,0.56800127
6140.398,0.57045625
6145.807,0.57264616
6151.226,0.57433579
6156.654,0.57557313
6162.091,0.57661948
6167.539,0.57780202
6172.996,0.57929806
6178.462,0.58100247
6183.938,0.58268128
6189.424,0.58432224
6194.92,0.58620024
6200.425,0.58851089
6205.94,0.59107869
6211.465,0.59349741
6217.0,0.59552442
6222.544,0.59726412
6228.099,0.59892222
6233.663,0.60052909
6239.237,0.60200549
6244.822,0.6034124
6250.416,0.60496854
6256.02,0.60679924
6261.635,0.6087639
6267.259,0.61058463
6272.893,0.61210471
6278.538,0.61338824
6284.193,0.61459684
6289.858,0.61583606
6295.533,0.61711046
6301.218,0.6183884
6306.914,0.61969847
6312.619,0.62118256
6318.336,0.62301086
6324.062,0.62517596
6329.799,0.62734651
6335.546,0.62902586
6341.304,0.63006699
6347.072,0.63099361
6352.851,0.6324981
6358.64,0.63466543
6364.44,0.63685827
6370.25,0.63833026
6376.071,0.63902444
6381.903,0.63968793
6387.745,0.64114053
6393.598,0.64364531
6399.461,0.64681798
6405.335,0.64976658
6411.221,0.65154088
6417.116,0.65196045
6423.023,0.65178892
6428.941,0.65189763
6434.869,0.65261368
6440.809,0.65376899
6446.759,0.65511286
6452.72,0.65670329
6458.693,0.65888222
6464.676,0.66182956
6470.671,0.66512666
6476.676,0.66775095
6482.693,0.66872782
6488.721,0.66818865
6494.76,0.66756224
6500.81,0.66818748
6506.872,0.67012274
6512.945,0.67241347
6519.029,0.67411128
6525.124,0.6751339
6531.231,0.67622749
6537.35,0.67808068
6543.48,0.68064631
6549.621,0.68330422
6555.774,0.68550765
6561.938,0.68723216
6568.114,0.68883078
6574.302,0.69051969
6580.501,0.69208415
6586.712,0.69312443
6592.934,0.69358874
6599.169,0.69406899
6605.415,0.69547239
6611.673,0.69822691
6617.943,0.70165697
6624.224,0.70407572
6630.518,0.70393865
6636.823,0.70160145
6643.141,0.69927163
6649.47,0.6987672
6655.812,0.70023643
6662.166,0.70258925
6668.532,0.70439856
6674.91,0.70496458
6681.3,0.70497258
6687.702,0.70578668
6694.117,0.70807507
6700.544,0.7111902
6706.983,0.71362859
6713.435,0.7142557
6719.899,0.71330708
6726.375,0.71201354
6732.864,0.71141781
6739.365,0.71179002
6745.879,0.71290333
6752.406,0.71455462
6758.945,0.71675524
6765.497,0.71943704
6772.062,0.72204778
6778.639,0.72358886
6785.229,0.72341858
6791.832,0.72210221
6798.448,0.72100498
6805.076,0.72102933
6811.718,0.72201387
6818.372,0.72319345
6825.039,0.72417291
6831.72,0.72540825
6838.413,0.72754736
6845.12,0.73044477
6851.84,0.73289185
6858.573,0.7335359
6865.319,0.73240093
6872.078,0.7309178
6878.851,0.73035641
6885.637,0.73094689
6892.437,0.73213921
6899.25,0.7331958
6906.076,0.73368977
6912.916,0.73370986
6919.769,0.73376086
6926.636,0.73448282
6933.517,0.73627326
6940.411,0.73894787
6947.319,0.74169847
6954.241,0.7436041
6961.176,0.74441511
6968.125,0.74469231
6975.089,0.74509127
6982.066,0.74577906
6989.057,0.74655043
6996.062,0.74727332
7003.081,0.7481005
7010.114,0.749317
7017.161,0.75109411
7024.223,0.75336566
7031.298,0.75574481
7038.388,0.75756019
7045.492,0.75826507
7052.611,0.75796641
7059.743,0.75736716
7066.891,0.75715706
7074.052,0.75756991
7081.229,0.7584559
7088.419,0.75960129
7095.625,0.7608901
7102.845,0.76221774
7110.079,0.76346894
7117.329,0.7646869
7124.593,0.76615885
7131.872,0.76816428
7139.166,0.7706033
7146.475,0.77290423
7153.799,0.77438822
7161.137,0.77483406
7168.491,0.77474188
7175.86,0.77496832
7183.244,0.77604614
7190.643,0.77777969
7198.058,0.77944099
7205.487,0.78043014
7212.933,0.78081758
7220.393,0.78119251
7227.869,0.7820651
7235.36,0.78354329
7242.867,0.78544449
7250.39,0.78750945
7257.928,0.78944645
7265.481,0.79094104
7273.051,0.79180468
7280.636,0.79214717
7288.237,0.79234271
7295.854,0.79281762
7303.487,0.79387074
7311.135,0.79556299
7318.8,0.79761927
7326.481,0.79945614
7334.178,0.80051851
7341.891,0.80073141
7349.62,0.80057748
7357.366,0.80065325
7365.128,0.80120372
7372.906,0.80208405
7380.701,0.80306613
7388.512,0.80407008
7396.34,0.80510525
7404.184,0.80611506
7412.045,0.80702321
7419.922,0.80792578
7427.817,0.80913461
7435.728,0.81091146
7443.656,0.81313062
7451.601,0.81523168
7459.562,0.81659424
7467.541,0.81703481
7475.537,0.81694607
7483.55,0.8169339
7491.58,0.81734941
7499.628,0.81814305
7507.692,0.8190591
7515.774,0.81991176
7523.874,0.82068687
7531.99,0.82147561
7540.125,0.82236914
7548.277,0.82339844
7556.446,0.8245281
7564.633,0.82567273
7572.838,0.82674504
7581.061,0.82768921
7589.302,0.82848784
7597.56,0.82913578
7605.837,0.82964622
7614.131,0.83008312
7622.444,0.83055606
7630.774,0.83114576
7639.123,0.8318408
7647.491,0.8325572
7655.876,0.83323903
7664.28,0.83391756
7672.702,0.8346661
7681.143,0.83551224
7689.602,0.83639634
7698.08,0.83722492
7706.577,0.83796064
7715.093,0.83865871
7723.627,0.8394097
7732.18,0.84024472
7740.752,0.84109325
7749.343,0.8418439
7757.953,0.84244832
7766.583,0.84297236
7775.231,0.84352951
7783.899,0.84417645
7792.586,0.84487431
7801.292,0.84555405
7810.018,0.84621276
7818.764,0.84692097
7827.529,0.84773814
7836.313,0.84863236
7845.117,0.84949075
7853.942,0.85021749
7862.786,0.8508063
7871.649,0.85132704
7880.533,0.85185223
7889.437,0.85241322
7898.361,0.85302439
7907.305,0.85371822
7916.27,0.85453166
7925.254,0.85546221
7934.26,0.85644821
7943.285,0.85741034
7952.331,0.85830133
7961.398,0.85913113
7970.485,0.85994433
7979.594,0.86079025
7988.723,0.86169426
7997.872,0.86264636
8007.043,0.86360108
8016.235,0.86450385
8025.448,0.8653268
8034.682,0.86608328
8043.937,0.86680724
8053.214,0.8675215
8062.512,0.86822213
8071.832,0.86889895
8081.173,0.86955695
8090.535,0.8702207
8099.92,0.87090996
8109.326,0.87162004
8118.754,0.87231865
8128.204,0.87296589
8137.676,0.8735357
8147.169,0.87402733
8156.686,0.87446775
8166.224,0.87489269
8175.785,0.87533118
8185.368,0.87579285
8194.973,0.87627781
8204.601,0.87678281
8214.252,0.87730429
8223.925,0.87782967
8233.621,0.87834007
8243.34,0.87882225
8253.082,0.87928033
8262.847,0.87972931
8272.635,0.88018112
8282.446,0.880641
8292.281,0.88111143
8302.139,0.88159675
8312.02,0.8820932
8321.925,0.88258444
8331.853,0.88306264
8341.805,0.88354405
8351.781,0.88405845
8361.781,0.88461969
8371.804,0.88520523
8381.852,0.88578041
8391.924,0.88633499
8402.02,0.88688396
8412.14,0.8874321
8422.285,0.88794587
8432.454,0.88837465
8442.648,0.88869763
8452.866,0.88894774
8463.109,0.88918925
8473.377,0.88947395
8483.67,0.88982025
8493.988,0.89021792
8504.331,0.89064004
8514.699,0.89106003
8525.092,0.89146534
8535.511,0.89186506
8545.955,0.89227448
8556.425,0.8926999
8566.921,0.89312868
8577.442,0.89355655
8587.989,0.89399344
8598.562,0.89445453
8609.161,0.89493636
8619.786,0.89542404
8630.437,0.89590448
8641.115,0.89637296
8651.819,0.8968147
8662.55,0.89721021
8673.307,0.89756136
8684.091,0.8978988
8694.902,0.89825782
8705.739,0.89864367
8716.604,0.89903602
8727.496,0.89942682
8738.415,0.899836
8749.361,0.90028785
8760.335,0.90077698
8771.336,0.90127242
8782.365,0.90174779
8793.422,0.90219724
8804.507,0.90262234
8815.619,0.90302026
8826.76,0.90339194
8837.928,0.90375754
8849.125,0.90414521
8860.351,0.90457387
8871.604,0.90503795
8882.887,0.90551461
8894.198,0.90598273
8905.538,0.90642716
8916.907,0.90683665
8928.305,0.90719726
8939.732,0.90750311
8951.188,0.90776409
8962.673,0.90800131
8974.189,0.90822596
8985.733,0.9084276
8997.308,0.9085833
9008.912,0.90869303
9020.546,0.90878784
9032.21,0.90890731
9043.905,0.90905202
9055.629,0.90917572
9067.384,0.90923226
9079.17,0.90921655
9090.986,0.9091739
9102.833,0.90914317
9114.711,0.90911812
9126.62,0.90905764
9138.56,0.90893525
9150.531,0.9087692
9162.534,0.90860789
9174.568,0.90848838
9186.634,0.90840775
9198.731,0.90833072
9210.86,0.90821209
9223.022,0.90804044
9235.215,0.90785466
9247.441,0.90772373
9259.699,0.90769424
9271.99,0.90774621
9284.313,0.90781876
9296.669,0.90787195
9309.058,0.90792554
9321.48,0.90803485
9333.935,0.90823272
9346.423,0.90850709
9358.945,0.90882107
9371.5,0.90914277
9384.089,0.90945475
9396.712,0.9097491
9409.369,0.91003413
9422.06,0.9103383
9434.785,0.91069018
9447.545,0.91108909
9460.339,0.911499
9473.167,0.91189492
9486.031,0.91230402
9498.929,0.91279151
9511.863,0.91339428
9524.832,0.91406853
9537.836,0.91471002
9550.876,0.9152295
9563.951,0.91561988
9577.062,0.91594868
9590.209,0.91630065
9603.393,0.91671783
9616.612,0.91718372
9629.868,0.91765467
9643.16,0.91810038
9656.49,0.91852721
9669.856,0.91897095
9683.259,0.91946597
9696.699,0.92000818
9710.176,0.92055016
9723.691,0.92103276
9737.244,0.9214337
9750.834,0.92178116
9764.463,0.92213004
9778.129,0.92252496
9791.834,0.92297677
9805.577,0.92347454
9819.359,0.92399574
9833.18,0.92450682
9847.039,0.92496955
9860.938,0.92536455
9874.875,0.92571684
9888.853,0.92607863
9902.869,0.92648528
9916.926,0.92692051
9931.022,0.92733806
9945.159,0.92770976
9959.336,0.92805643
9973.553,0.92841895
9987.811,0.92881479
10002.109,0.92921774
10016.449,0.92958365
10030.83,0.92988514
10045.252,0.93012856
10059.715,0.93034622
10074.221,0.93057194
10088.768,0.93081769
10103.357,0.93107614
10117.988,0.93133672
10132.662,0.93160544
10147.378,0.93189835
10162.137,0.93222091
10176.939,0.93254685
10191.784,0.93283683
10206.672,0.93307603
10221.604,0.93329036
10236.58,0.93352167
10251.6,0.93378784
10266.663,0.93406582
10281.771,0.93431773
10296.924,0.93452907
10312.121,0.93471849
10327.363,0.93492256
10342.65,0.93516281
10357.982,0.93543746
10373.36,0.93572874
10388.784,0.93601031
10404.253,0.93625861
10419.769,0.93645555
10435.331,0.93659892
10450.939,0.9367042
10466.594,0.93678804
10482.296,0.93685012
10498.045,0.93687132
10513.842,0.93682949
10529.686,0.93672943
10545.577,0.93659413
10561.517,0.93645019
10577.505,0.93630463
10593.542,0.93614625
10609.627,0.93596496
10625.761,0.93576073
10641.944,0.93554228
10658.176,0.93532264
10674.458,0.93511809
10690.79,0.93494407
10707.172,0.93480577
10723.604,0.93468791
10740.086,0.93456099
10756.619,0.93439737
10773.203,0.93419095
10789.839,0.93395958
10806.525,0.93373596
10823.264,0.93354374
10840.054,0.93337857
10856.896,0.93321106
10873.791,0.93301901
10890.738,0.93281706
10907.738,0.93264646
10924.791,0.93252334
10941.898,0.93240328
10959.058,0.93221338
10976.272,0.93192002
10993.541,0.93156485
11010.863,0.93122537
11028.24,0.93095048
11045.672,0.93073803
11063.16,0.930556
11080.702,0.93037903
11098.301,0.93018958
11115.955,0.9299835
11133.665,0.92976327
11151.432,0.92953979
11169.256,0.92932346
11187.137,0.92911211
11205.075,0.92890495
11223.07,0.92871495
11241.124,0.9285671
11259.235,0.92847664
11277.405,0.92843847
11295.634,0.92843136
11313.921,0.92843601
11332.268,0.92842926
11350.675,0.92838413
11369.141,0.92828437
11387.667,0.92815558
11406.254,0.92806164
11424.901,0.92805344
11443.61,0.92812104
11462.38,0.92818998
11481.211,0.92817996
11500.105,0.92807148
11519.06,0.92791775
11538.079,0.92779611
11557.16,0.92774796
11576.304,0.92775603
11595.511,0.92776967
11614.783,0.92775053
11634.118,0.92769481
11653.518,0.92762702
11672.983,0.92757825
11692.513,0.92757131
11712.108,0.9275983
11731.769,0.92762256
11751.496,0.92759776
11771.29,0.92750522
11791.15,0.92737137
11811.077,0.92724548
11831.072,0.92716349
11851.134,0.92712749
11871.265,0.92712574
11891.464,0.92714265
11911.731,0.92715873
11932.068,0.92714213
11952.475,0.92706265
11972.951,0.92691617
11993.497,0.92673114
12014.114,0.92654795
12034.802,0.92638235
12055.562,0.92621421
12076.393,0.92600217
12097.296,0.92572511
12118.271,0.92542159
12139.32,0.92517464
12160.441,0.92503298
12181.636,0.92494351
12202.905,0.92478187
12224.249,0.92447778
12245.667,0.92409739
12267.16,0.92378492
12288.729,0.92361292
12310.373,0.92351317
12332.094,0.92335836
12353.892,0.92309551
12375.767,0.92279233
12397.719,0.92256012
12419.75,0.92245364
12441.859,0.92245347
12464.046,0.92250409
12486.313,0.92256121
12508.659,0.92261045
12531.086,0.92266652
12553.593,0.92275545
12576.18,0.92287639
12598.85,0.92298621
12621.601,0.9230306
12644.434,0.9230065
12667.35,0.92296764
12690.349,0.92296492
12713.432,0.92298494
12736.599,0.92296004
12759.85,0.92284759
12783.187,0.92267274
12806.608,0.9225044
12830.116,0.92239096
12853.71,0.92232912
12877.391,0.92228139
12901.159,0.92220196
12925.016,0.92205958
12948.96,0.9218477
12972.993,0.92158425
12997.116,0.92128912
13021.329,0.92096445
13045.631,0.92059928
13070.025,0.92019959
13094.51,0.91979836
13119.087,0.91943221
13143.756,0.91910044
13168.518,0.91876865
13193.373,0.91839664
13218.322,0.91797998
13243.366,0.91754312
13268.505,0.91711087
13293.74,0.91668094
13319.07,0.91622482
13344.497,0.91572549
13370.021,0.91520466
13395.644,0.91470979
13421.364,0.9142587
13447.183,0.91379584
13473.102,0.91322421
13499.121,0.91249849
13525.24,0.91169003
13551.461,0.91094604
13577.783,0.91036658
13604.208,0.90990049
13630.736,0.90937774
13657.367,0.90865345
13684.103,0.9077316
13710.943,0.90674717
13737.889,0.90582516
13764.941,0.90495123
13792.099,0.90399914
13819.365,0.9028653
13846.739,0.90158192
13874.221,0.90027767
13901.813,0.8990424
13929.515,0.89783707
13957.327,0.89653391
13985.25,0.8950294
14013.285,0.89331852
14041.433,0.89147731
14069.694,0.88958189
14098.068,0.88765463
14126.558,0.88566878
14155.163,0.88358791
14183.883,0.88138028
14212.721,0.87901379
14241.676,0.87644643
14270.749,0.87364108
14299.94,0.87060155
14329.252,0.86738313
14358.684,0.86404142
14388.237,0.8605605
14417.911,0.85684178
14447.709,0.85278726
14477.629,0.84840243
14507.674,0.84378384
14537.844,0.83898278
14568.139,0.83390203
14598.561,0.82837039
14629.109,0.82230719
14659.786,0.81578395
14690.592,0.80895706
14721.528,0.80200956
14752.594,0.79508154
14783.791,0.78797056
14815.121,0.77973571
14846.583,0.76890751
14878.179,0.75469533
14909.91,0.73843431
14941.777,0.72360212
14973.78,0.71318005
15005.92,0.70644842
15038.198,0.69942341
15070.616,0.68849268
15103.173,0.6729177
15135.871,0.65436842
15168.712,0.634675
15201.695,0.61423695
15234.821,0.59250156
15268.092,0.56930875
15301.509,0.54525634
15335.072,0.5210582
15368.783,0.49707039
15402.642,0.47339084
15436.651,0.44995865
15470.81,0.42647307
15505.12,0.40260461
15539.583,0.37849289
15574.199,0.35484469
15608.97,0.33238011
15643.896,0.31133869
15678.979,0.29161067
15714.22,0.27313932
15749.619,0.25601271
15785.178,0.24025206
15820.897,0.22574222
15856.779,0.2123749
15892.824,0.20004553
15929.033,0.18856659
15965.407,0.17776248
