Database of Origin,University of Winnipeg Spectrophotometer Facility
Sample Description,See Master Clays in HOSERLab database
Date Added,2016-12-11 20:56:55.261777

Data ID,FTIR_CLAY_09        
Sample ID,KAO101
Mineral Name,Kaolinite
Grain Size,<45 m
Viewing Geometry,35/0
Resolution,11-72 nm
Material Class,Phyllosilicate

Wavelength
2001.142,0.44691722
2002.307,0.44744436
2003.474,0.44784356
2004.643,0.44785586
2005.812,0.44748073
2006.983,0.4472779
2008.155,0.44753121
2009.329,0.4479196
2010.504,0.4480642
2011.68,0.44827913
2012.858,0.44877255
2014.037,0.44921978
2015.217,0.44952935
2016.399,0.44958295
2017.582,0.44941241
2018.766,0.44976164
2019.952,0.45043689
2021.139,0.4505146
2022.328,0.45038473
2023.518,0.45008134
2024.709,0.44972528
2025.902,0.45002688
2027.096,0.45029717
2028.291,0.45029832
2029.488,0.45033494
2030.686,0.45005054
2031.886,0.44999749
2033.087,0.45038874
2034.289,0.45054282
2035.493,0.45098379
2036.698,0.45147891
2037.905,0.45114293
2039.113,0.45061532
2040.322,0.45070219
2041.533,0.45111049
2042.746,0.45110257
2043.959,0.45084567
2045.174,0.45091494
2046.391,0.45122131
2047.609,0.45124203
2048.828,0.45102375
2050.049,0.45091
2051.271,0.45092549
2052.495,0.45113782
2053.72,0.45115203
2054.947,0.45065164
2056.175,0.45000499
2057.404,0.4497129
2058.635,0.44956624
2059.867,0.44924731
2061.101,0.44899774
2062.336,0.44868043
2063.573,0.4484869
2064.811,0.448155
2066.051,0.44719571
2067.292,0.44641002
2068.534,0.44599582
2069.778,0.44549336
2071.024,0.44491452
2072.271,0.44433638
2073.519,0.44426475
2074.769,0.44434348
2076.02,0.44366886
2077.273,0.44296219
2078.528,0.44249276
2079.784,0.44168878
2081.041,0.44074672
2082.3,0.43968965
2083.56,0.4386232
2084.822,0.43813971
2086.085,0.43790326
2087.35,0.43786847
2088.617,0.43835525
2089.885,0.43842984
2091.154,0.43792782
2092.425,0.43781771
2093.697,0.43780899
2094.971,0.43731982
2096.247,0.43684078
2097.524,0.43671866
2098.803,0.43668428
2100.083,0.43651209
2101.364,0.4364945
2102.648,0.43612797
2103.932,0.43481491
2105.219,0.43301246
2106.506,0.43108812
2107.796,0.42925681
2109.087,0.42766677
2110.379,0.42683216
2111.673,0.42684323
2112.969,0.42697033
2114.266,0.42720752
2115.565,0.42733713
2116.865,0.42691252
2118.167,0.42695677
2119.471,0.42701775
2120.776,0.42600906
2122.082,0.42511862
2123.391,0.42440838
2124.7,0.42324691
2126.012,0.42222845
2127.325,0.42094945
2128.64,0.41919698
2129.956,0.41774557
2131.274,0.41624676
2132.593,0.41463563
2133.914,0.41269359
2135.237,0.40940341
2136.561,0.40542172
2137.887,0.40213717
2139.214,0.39891085
2140.544,0.3944856
2141.874,0.38906584
2143.207,0.38302761
2144.541,0.37686693
2145.876,0.37077186
2147.214,0.3645841
2148.553,0.35888315
2149.893,0.35384625
2151.235,0.34925783
2152.579,0.34535134
2153.925,0.34220027
2155.272,0.33952713
2156.621,0.33718194
2157.972,0.3353981
2159.324,0.33448491
2160.678,0.33464758
2162.033,0.33545075
2163.39,0.33622886
2164.749,0.33730675
2166.11,0.33848356
2167.472,0.33939531
2168.836,0.34077837
2170.202,0.34247759
2171.569,0.34376831
2172.938,0.34452836
2174.309,0.34514576
2175.682,0.34596619
2177.056,0.34659233
2178.432,0.34677903
2179.809,0.34662714
2181.189,0.34610607
2182.57,0.34461357
2183.952,0.34207386
2185.337,0.33907015
2186.723,0.33563087
2188.111,0.3326713
2189.501,0.33042648
2190.892,0.32811133
2192.285,0.32614834
2193.68,0.32507435
2195.077,0.32444044
2196.476,0.32312432
2197.876,0.32037526
2199.278,0.31532531
2200.682,0.307362
2202.087,0.29655795
2203.494,0.28269215
2204.903,0.26786018
2206.314,0.25838098
2207.727,0.26106056
2209.141,0.27670827
2210.557,0.29870893
2211.975,0.31963674
2213.395,0.33694989
2214.817,0.35086548
2216.24,0.36172699
2217.665,0.37057228
2219.092,0.377427
2220.521,0.382022
2221.952,0.38557989
2223.384,0.38869861
2224.818,0.39112019
2226.254,0.39283232
2227.692,0.39395481
2229.132,0.3947099
2230.574,0.39520693
2232.017,0.39543512
2233.462,0.39483252
2234.91,0.3935176
2236.359,0.392542
2237.809,0.39222748
2239.262,0.39229678
2240.717,0.39244986
2242.173,0.39282682
2243.631,0.39330511
2245.092,0.39353876
2246.554,0.39387063
2248.017,0.39420754
2249.483,0.394228
2250.951,0.3942923
2252.421,0.39416995
2253.892,0.39313779
2255.365,0.39188849
2256.841,0.3912393
2258.318,0.39071821
2259.797,0.39018412
2261.278,0.38974859
2262.761,0.3892849
2264.246,0.38865539
2265.732,0.38772287
2267.221,0.38649312
2268.712,0.38535115
2270.204,0.38419944
2271.699,0.38276776
2273.195,0.38164107
2274.694,0.38053555
2276.194,0.37924204
2277.696,0.37796945
2279.201,0.37653401
2280.707,0.37535326
2282.215,0.37436241
2283.725,0.37339486
2285.237,0.37232866
2286.752,0.37107287
2288.268,0.37001117
2289.786,0.3691608
2291.306,0.36834573
2292.828,0.36737475
2294.352,0.3665198
2295.878,0.36580404
2297.406,0.36471142
2298.936,0.3632773
2300.468,0.36166068
2302.002,0.35999015
2303.539,0.35815681
2305.077,0.35609755
2306.617,0.35428975
2308.159,0.35265204
2309.703,0.35074035
2311.25,0.34883191
2312.798,0.34735169
2314.348,0.34675652
2315.901,0.34693217
2317.455,0.34672689
2319.012,0.34588028
2320.571,0.34509675
2322.131,0.34457013
2323.694,0.34423338
2325.259,0.3441733
2326.826,0.34445324
2328.395,0.34505934
2329.966,0.34603999
2331.54,0.34709918
2333.115,0.34792408
2334.692,0.34864467
2336.272,0.34896357
2337.854,0.34842455
2339.437,0.347159
2341.023,0.34569743
2342.611,0.34410519
2344.201,0.34218613
2345.794,0.34031036
2347.388,0.3385859
2348.985,0.33674776
2350.583,0.33489426
2352.184,0.33309692
2353.787,0.33149094
2355.393,0.33029279
2357.0,0.32955431
2358.609,0.32946225
2360.221,0.32998851
2361.835,0.33080158
2363.451,0.33137334
2365.069,0.33136399
2366.69,0.3308751
2368.312,0.32981285
2369.937,0.32808014
2371.564,0.32583247
2373.194,0.32314831
2374.825,0.32045529
2376.459,0.31821935
2378.095,0.31612938
2379.733,0.31403185
2381.373,0.31249101
2383.016,0.31207537
2384.661,0.31291425
2386.308,0.31452508
2387.957,0.31641377
2389.609,0.31825806
2391.263,0.31967831
2392.919,0.3210433
2394.577,0.32282267
2396.238,0.32467432
2397.901,0.32639236
2399.566,0.32771975
2401.233,0.32837289
2402.903,0.32858039
2404.575,0.32842638
2406.25,0.32793616
2407.926,0.32747609
2409.606,0.32707782
2411.287,0.32628111
2412.971,0.32524863
2414.657,0.32423959
2416.345,0.32309737
2418.036,0.32185272
2419.729,0.32049304
2421.424,0.31908706
2423.122,0.31770851
2424.822,0.31630465
2426.524,0.31472739
2428.229,0.31277414
2429.936,0.31035762
2431.646,0.30768108
2433.358,0.30512981
2435.072,0.30259061
2436.789,0.29989511
2438.508,0.29754454
2440.229,0.29586161
2441.953,0.29460638
2443.679,0.29357534
2445.408,0.29224699
2447.139,0.29092376
2448.873,0.29018012
2450.609,0.2893492
2452.347,0.28835954
2454.088,0.28747387
2455.831,0.28659774
2457.577,0.28581232
2459.325,0.28534683
2461.076,0.28521085
2462.829,0.28492241
2464.585,0.28430054
2466.343,0.28364102
2468.104,0.28302337
2469.867,0.2823851
2471.632,0.2816275
2473.4,0.28058908
2475.171,0.27942441
2476.944,0.27839149
2478.72,0.27724631
2480.498,0.27560169
2482.278,0.27343565
2484.062,0.2710352
2485.847,0.26893497
2487.636,0.26768253
2489.427,0.26729424
2491.22,0.26701559
2493.016,0.26639738
2494.814,0.26589098
2496.615,0.26571214
2498.419,0.26553764
2500.225,0.26530604
2502.034,0.26489537
2503.845,0.26413518
2505.659,0.26322097
2507.476,0.26226146
2509.295,0.26131329
2511.117,0.2604976
2512.942,0.25987765
2514.769,0.2594482
2516.598,0.25909999
2518.431,0.25858714
2520.266,0.25816159
2522.103,0.25812454
2523.944,0.25777472
2525.787,0.25682682
2527.632,0.25604212
2529.48,0.25586371
2531.331,0.25603166
2533.185,0.25602424
2535.041,0.25575381
2536.9,0.25459829
2538.762,0.25267696
2540.627,0.25191492
2542.494,0.25193912
2544.364,0.25072617
2546.236,0.24971815
2548.112,0.24971693
2549.99,0.24997618
2551.87,0.25055045
2553.754,0.24982604
2555.64,0.24816856
2557.529,0.24796349
2559.421,0.24994831
2561.316,0.25261712
2563.213,0.25211356
2565.113,0.2483665
2567.016,0.24597515
2568.922,0.24584114
2570.831,0.24569437
2572.742,0.24544101
2574.656,0.24530938
2576.573,0.24423161
2578.493,0.24252152
2580.416,0.24272293
2582.342,0.24557693
2584.27,0.24659957
2586.201,0.24522153
2588.135,0.24370371
2590.072,0.2412928
2592.012,0.24208454
2593.955,0.24905905
2595.9,0.24791108
2597.849,0.23915808
2599.8,0.23617212
2601.755,0.23755295
2603.712,0.24023516
2605.672,0.24048906
2607.635,0.23697655
2609.601,0.23327744
2611.57,0.23047004
2613.542,0.22976216
2615.517,0.23232177
2617.495,0.23416471
2619.475,0.23188399
2621.459,0.22678944
2623.446,0.22255567
2625.435,0.22188127
2627.428,0.22229636
2629.424,0.22212329
2631.423,0.21955734
2633.424,0.21375079
2635.429,0.20807968
2637.437,0.20374273
2639.447,0.20099116
2641.461,0.19857111
2643.478,0.19597264
2645.498,0.19354016
2647.521,0.18936284
2649.547,0.18538527
2651.576,0.18369512
2653.609,0.18163404
2655.644,0.17703084
2657.682,0.1723567
2659.724,0.16881241
2661.768,0.16473974
2663.816,0.16407222
2665.867,0.16503247
2667.921,0.16007363
2669.978,0.15419648
2672.038,0.14264359
2674.102,0.13366468
2676.168,0.13269726
2678.238,0.12567795
2680.311,0.11024631
2682.387,0.10104501
2684.467,0.09591935
2686.549,0.08876466
2688.635,0.07930716
2690.724,0.07204551
2692.816,0.07072497
2694.911,0.06849318
2697.01,0.0586885
2699.112,0.05250828
2701.217,0.05096882
2703.325,0.04826659
2705.437,0.04605012
2707.552,0.04855057
2709.67,0.05455172
2711.791,0.05403527
2713.916,0.0470406
2716.044,0.04279434
2718.175,0.04556229
2720.31,0.05223731
2722.448,0.05104511
2724.589,0.04609803
2726.734,0.0399192
2728.882,0.03500241
2731.034,0.03316053
2733.188,0.03245496
2735.347,0.03095102
2737.508,0.0297478
2739.673,0.03289492
2741.841,0.03365085
2744.013,0.02943475
2746.188,0.02809395
2748.367,0.02839837
2750.549,0.02811618
2752.734,0.02773623
2754.923,0.02745086
2757.115,0.02375065
2759.311,0.01931525
2761.51,0.01867424
2763.713,0.02118779
2765.919,0.02446921
2768.129,0.02835643
2770.342,0.03254063
2772.559,0.03605024
2774.779,0.03813037
2777.003,0.03909253
2779.23,0.03974913
2781.461,0.0407438
2783.696,0.04207431
2785.934,0.04304149
2788.175,0.04356685
2790.42,0.04349543
2792.669,0.04352656
2794.922,0.04379164
2797.178,0.04431244
2799.437,0.04500467
2801.7,0.04571046
2803.967,0.04630578
2806.238,0.04596763
2808.512,0.04548116
2810.789,0.04535848
2813.071,0.0450645
2815.356,0.04458147
2817.645,0.04441843
2819.937,0.04415123
2822.233,0.04362709
2824.533,0.04350574
2826.837,0.04393493
2829.144,0.04439847
2831.455,0.04453454
2833.77,0.04466604
2836.089,0.04492365
2838.411,0.04497173
2840.737,0.04481428
2843.067,0.04494044
2845.401,0.04520551
2847.739,0.04491729
2850.08,0.0443627
2852.425,0.0443042
2854.774,0.04436719
2857.127,0.04413728
2859.484,0.04412637
2861.844,0.04428136
2864.209,0.04424506
2866.577,0.04440016
2868.949,0.04422026
2871.325,0.04370359
2873.705,0.04379924
2876.089,0.0439552
2878.477,0.04383228
2880.869,0.04380578
2883.265,0.04357108
2885.664,0.04298609
2888.068,0.04304486
2890.476,0.04378445
2892.887,0.04335236
2895.303,0.04234121
2897.723,0.04207309
2900.146,0.04169551
2902.574,0.04136434
2905.006,0.04144795
2907.441,0.04121311
2909.881,0.04046274
2912.325,0.03986879
2914.773,0.0405244
2917.225,0.04218353
2919.681,0.04295738
2922.142,0.04297836
2924.606,0.04299896
2927.075,0.04269802
2929.547,0.04273215
2932.024,0.04313055
2934.505,0.04336553
2936.99,0.04384769
2939.479,0.04442711
2941.973,0.04425012
2944.471,0.04442952
2946.973,0.04604076
2949.479,0.04649522
2951.989,0.04568669
2954.504,0.04641832
2957.023,0.04680755
2959.546,0.04559249
2962.073,0.04495666
2964.605,0.0453888
2967.141,0.04600863
2969.681,0.04625455
2972.226,0.04701455
2974.775,0.04889053
2977.328,0.04966358
2979.886,0.04890913
2982.448,0.04856723
2985.015,0.0486526
2987.586,0.04892921
2990.161,0.0500737
2992.74,0.05101747
2995.324,0.05075045
2997.913,0.0509094
3000.506,0.05204696
3003.103,0.05286984
3005.705,0.05283942
3008.312,0.05272579
3010.922,0.0531408
3013.538,0.05419186
3016.158,0.05486012
3018.782,0.05451851
3021.411,0.0545666
3024.044,0.05526463
3026.683,0.05619429
3029.325,0.05812815
3031.972,0.06060121
3034.624,0.06074133
3037.281,0.05921466
3039.942,0.05924615
3042.607,0.06049704
3045.278,0.06119748
3047.953,0.0605533
3050.632,0.05974684
3053.317,0.05990402
3056.006,0.06036685
3058.7,0.06097107
3061.398,0.06224216
3064.101,0.0639273
3066.809,0.06442949
3069.522,0.06368311
3072.239,0.06325604
3074.962,0.06342337
3077.689,0.0641411
3080.421,0.06496834
3083.157,0.06525975
3085.899,0.06586096
3088.645,0.06667871
3091.396,0.06674536
3094.153,0.06645849
3096.914,0.06680146
3099.679,0.06838298
3102.45,0.06939528
3105.226,0.06886062
3108.007,0.06844531
3110.792,0.06881714
3113.583,0.06970283
3116.378,0.07051424
3119.179,0.07105656
3121.985,0.07147478
3124.795,0.0720081
3127.611,0.07270944
3130.431,0.07328039
3133.257,0.07388924
3136.088,0.07468517
3138.924,0.07557934
3141.765,0.07651174
3144.611,0.07717183
3147.462,0.07772536
3150.319,0.07856487
3153.18,0.07950351
3156.047,0.08033359
3158.919,0.08103003
3161.796,0.08182329
3164.678,0.08273345
3167.566,0.0836408
3170.458,0.08459366
3173.356,0.08550191
3176.26,0.08675028
3179.168,0.08903004
3182.082,0.09070385
3185.001,0.09054727
3187.926,0.09047926
3190.856,0.0918175
3193.791,0.09399434
3196.731,0.09487369
3199.677,0.09483759
3202.629,0.09592866
3205.585,0.0970663
3208.548,0.09779093
3211.515,0.09988081
3214.488,0.1034172
3217.467,0.1056923
3220.451,0.10513931
3223.441,0.10455245
3226.436,0.10546363
3229.437,0.10575984
3232.443,0.10630409
3235.455,0.10777709
3238.472,0.10849535
3241.495,0.10937198
3244.523,0.1111872
3247.558,0.11275788
3250.598,0.11438998
3253.643,0.1164594
3256.694,0.11806625
3259.751,0.11791774
3262.814,0.11666504
3265.882,0.11726132
3268.956,0.11953702
3272.036,0.12089562
3275.122,0.1209973
3278.213,0.12154153
3281.31,0.1231007
3284.413,0.12476496
3287.522,0.12593372
3290.637,0.12690271
3293.757,0.12897874
3296.884,0.13117557
3300.016,0.13140184
3303.155,0.13174023
3306.299,0.13322336
3309.449,0.1339276
3312.605,0.13444774
3315.767,0.13571969
3318.936,0.13704086
3322.11,0.13852982
3325.29,0.14102015
3328.476,0.14376295
3331.669,0.14415649
3334.867,0.14277057
3338.072,0.14261716
3341.282,0.14374826
3344.499,0.1451457
3347.722,0.14645187
3350.952,0.14760047
3354.187,0.14769301
3357.429,0.14696602
3360.677,0.14732265
3363.931,0.14829414
3367.191,0.14827016
3370.458,0.14772296
3373.731,0.14757833
3377.01,0.14773823
3380.296,0.14873227
3383.588,0.15064306
3386.886,0.15263093
3390.191,0.15400836
3393.502,0.15525581
3396.82,0.15654913
3400.144,0.15703637
3403.475,0.15762285
3406.812,0.15806175
3410.156,0.15685527
3413.506,0.15568717
3416.862,0.15616033
3420.226,0.15843186
3423.596,0.16202759
3426.972,0.16498716
3430.355,0.16722058
3433.745,0.16989825
3437.141,0.17321876
3440.545,0.17706961
3443.954,0.17962331
3447.371,0.17978525
3450.794,0.18002572
3454.224,0.18152897
3457.661,0.18297712
3461.105,0.18427012
3464.556,0.18546935
3468.013,0.18581781
3471.477,0.18569035
3474.948,0.18597601
3478.426,0.18670055
3481.911,0.18768987
3485.403,0.18883649
3488.902,0.19061278
3492.408,0.19156199
3495.921,0.19016475
3499.441,0.18869347
3502.968,0.18893162
3506.502,0.19114503
3510.043,0.1943141
3513.592,0.1972106
3517.147,0.20021619
3520.71,0.20333331
3524.28,0.20596371
3527.857,0.20796158
3531.441,0.21063646
3535.032,0.2134894
3538.631,0.21455393
3542.237,0.21485052
3545.851,0.2156352
3549.471,0.21674021
3553.099,0.21805178
3556.735,0.2195339
3560.378,0.22098761
3564.028,0.22225777
3567.686,0.22369956
3571.351,0.22514619
3575.024,0.22607224
3578.704,0.22689863
3582.392,0.22831832
3586.088,0.22994391
3589.791,0.23077157
3593.501,0.23164019
3597.22,0.23312108
3600.946,0.23383248
3604.679,0.23425149
3608.421,0.23514505
3612.17,0.23650205
3615.926,0.23830739
3619.691,0.23929231
3623.463,0.23970262
3627.244,0.24068829
3631.032,0.24188145
3634.828,0.2429992
3638.632,0.24410699
3642.444,0.24497362
3646.263,0.2459055
3650.091,0.24720531
3653.927,0.24795659
3657.771,0.24803279
3661.623,0.24842181
3665.483,0.24915325
3669.351,0.24954228
3673.227,0.24950072
3677.111,0.24977311
3681.004,0.24995969
3684.905,0.24918102
3688.814,0.24823753
3692.731,0.24794683
3696.656,0.24827211
3700.59,0.24920473
3704.532,0.25068335
3708.483,0.25263358
3712.442,0.25519549
3716.409,0.25797604
3720.385,0.26041103
3724.37,0.26240626
3728.362,0.26409043
3732.364,0.26542403
3736.374,0.26637513
3740.392,0.26701371
3744.419,0.26759452
3748.455,0.26912853
3752.499,0.27121056
3756.553,0.27250347
3760.614,0.27331081
3764.685,0.27420229
3768.764,0.27510794
3772.853,0.2759961
3776.95,0.27692906
3781.056,0.2777931
3785.17,0.27848648
3789.294,0.27914988
3793.427,0.27997278
3797.568,0.28087209
3801.719,0.28170754
3805.879,0.28243527
3810.048,0.28312711
3814.225,0.28379654
3818.412,0.28438998
3822.609,0.28516576
3826.814,0.2859107
3831.029,0.28641579
3835.252,0.28697059
3839.486,0.28761853
3843.728,0.28830049
3847.98,0.28891435
3852.241,0.28956996
3856.512,0.29031458
3860.792,0.29089508
3865.081,0.29144929
3869.38,0.29208716
3873.689,0.29269429
3878.007,0.29335556
3882.334,0.29406299
3886.672,0.29474537
3891.019,0.29544137
3895.375,0.29614145
3899.742,0.29675049
3904.118,0.2973025
3908.504,0.29779154
3912.9,0.29826309
3917.305,0.29892058
3921.721,0.29955643
3926.146,0.29995339
3930.581,0.30036709
3935.027,0.3008506
3939.482,0.3012316
3943.948,0.3017029
3948.423,0.30230141
3952.909,0.30281551
3957.405,0.30335218
3961.911,0.30395968
3966.427,0.30459838
3970.954,0.30517051
3975.491,0.30568713
3980.038,0.30628166
3984.595,0.30682753
3989.163,0.30745915
3993.742,0.30824482
3998.33,0.30887605
4002.93,0.30934843
4007.54,0.30983978
4012.16,0.3102777
4016.791,0.31048421
4021.433,0.31062379
4026.086,0.31089737
4030.749,0.31132972
4035.423,0.31182124
4040.108,0.31223129
4044.804,0.31269919
4049.51,0.31317151
4054.228,0.31350181
4058.956,0.31385588
4063.695,0.31428458
4068.446,0.3146578
4073.207,0.31507058
4077.98,0.3155275
4082.764,0.31589065
4087.559,0.31631562
4092.365,0.31669437
4097.183,0.31698342
4102.012,0.31738723
4106.852,0.31781702
4111.703,0.31823748
4116.566,0.31872123
4121.441,0.31921505
4126.327,0.3197156
4131.224,0.32031473
4136.133,0.32078307
4141.054,0.32108264
4145.987,0.32155231
4150.931,0.32210059
4155.887,0.32263006
4160.854,0.32332248
4165.834,0.32413868
4170.826,0.32489087
4175.829,0.32553653
4180.844,0.32629653
4185.872,0.32741919
4190.911,0.32916767
4195.963,0.33228352
4201.026,0.33795203
4206.102,0.34668027
4211.19,0.35750164
4216.291,0.3694287
4221.404,0.38178844
4226.529,0.39321855
4231.666,0.40220232
4236.816,0.40727188
4241.979,0.40721282
4247.154,0.40120772
4252.341,0.38685012
4257.542,0.37568427
4262.754,0.3799876
4267.98,0.39236833
4273.219,0.39751298
4278.47,0.39761742
4283.734,0.3974836
4289.011,0.39790453
4294.301,0.39709318
4299.604,0.39487367
4304.92,0.393012
4310.25,0.38964716
4315.592,0.38458611
4320.948,0.38049572
4326.317,0.37761557
4331.699,0.37472633
4337.095,0.37191727
4342.504,0.36975389
4347.926,0.36840528
4353.362,0.36771658
4358.811,0.36741806
4364.275,0.36727302
4369.751,0.36724854
4375.242,0.36751681
4380.746,0.36818724
4386.264,0.36929322
4391.796,0.3706888
4397.342,0.37210707
4402.902,0.3735136
4408.476,0.37493047
4414.064,0.37633366
4419.666,0.37770391
4425.282,0.3789389
4430.913,0.38008247
4436.558,0.38124593
4442.217,0.38239452
4447.891,0.38349157
4453.579,0.38453476
4459.281,0.38556297
4464.998,0.38657857
4470.73,0.38753418
4476.477,0.3884227
4482.238,0.38930611
4488.014,0.39040554
4493.805,0.39168177
4499.611,0.39297516
4505.431,0.39445461
4511.267,0.39606364
4517.118,0.39765099
4522.984,0.39929398
4528.865,0.40090918
4534.762,0.40241327
4540.674,0.40380636
4546.601,0.40503524
4552.543,0.40623823
4558.502,0.40748718
4564.475,0.40856091
4570.465,0.40936731
4576.47,0.41010374
4582.491,0.41087158
4588.527,0.41158508
4594.58,0.41232067
4600.648,0.4131526
4606.732,0.41393546
4612.833,0.41438696
4618.949,0.41469008
4625.082,0.41510574
4631.231,0.41544579
4637.397,0.41590154
4643.578,0.41658582
4649.777,0.41733953
4655.991,0.41833115
4662.223,0.41949333
4668.471,0.42086275
4674.735,0.42277183
4681.017,0.42475348
4687.315,0.42645089
4693.63,0.42821368
4699.962,0.43010582
4706.312,0.43215538
4712.678,0.4344223
4719.062,0.43670582
4725.463,0.43891485
4731.881,0.44094216
4738.316,0.44275534
4744.769,0.44462665
4751.24,0.44656768
4757.728,0.44839258
4764.234,0.45005727
4770.758,0.45147343
4777.299,0.45309581
4783.859,0.45512318
4790.436,0.45658808
4797.032,0.45742087
4803.645,0.45834595
4810.277,0.45945126
4816.927,0.46056277
4823.596,0.46156364
4830.283,0.46267328
4836.988,0.4646047
4843.712,0.46624714
4850.455,0.46644645
4857.216,0.46682648
4863.996,0.46798375
4870.795,0.46918754
4877.613,0.47025176
4884.451,0.47135455
4891.307,0.47314037
4898.182,0.47507399
4905.077,0.47595868
4911.991,0.47673499
4918.925,0.47816526
4925.878,0.47971731
4932.851,0.48136921
4939.844,0.48293682
4946.856,0.48489019
4953.888,0.48775361
4960.941,0.48866949
4968.013,0.48750841
4975.105,0.48764588
4982.218,0.48867083
4989.351,0.48949425
4996.504,0.49072223
5003.678,0.49187993
5010.872,0.49464892
5018.087,0.49946718
5025.323,0.50028018
5032.58,0.49767695
5039.857,0.49670425
5047.156,0.49703278
5054.475,0.49759019
5061.816,0.49808316
5069.179,0.49865747
5076.562,0.5016421
5083.967,0.5043163
5091.394,0.50257348
5098.842,0.5011398
5106.312,0.50198216
5113.804,0.50284237
5121.318,0.50335318
5128.854,0.50435974
5136.412,0.50866487
5143.992,0.51592374
5151.595,0.51626853
5159.22,0.51159907
5166.868,0.51181614
5174.538,0.51424872
5182.231,0.51576366
5189.947,0.52017113
5197.686,0.52787532
5205.448,0.5341968
5213.233,0.53666565
5221.041,0.53329929
5228.873,0.53328654
5236.728,0.53830182
5244.607,0.53900528
5252.51,0.53883696
5260.436,0.54093814
5268.386,0.54535042
5276.36,0.55008166
5284.358,0.55516759
5292.381,0.55934483
5300.428,0.55719302
5308.499,0.5553644
5316.595,0.55694032
5324.715,0.55846765
5332.86,0.56037018
5341.031,0.57173831
5349.226,0.58756566
5357.446,0.5826002
5365.692,0.57122034
5373.962,0.57046536
5382.259,0.5714696
5390.581,0.5716361
5398.928,0.57412126
5407.302,0.58279516
5415.701,0.59981557
5424.127,0.60496932
5432.579,0.5918819
5441.057,0.58692801
5449.561,0.59115399
5458.092,0.60279054
5466.65,0.6156695
5475.234,0.61376268
5483.846,0.60553151
5492.484,0.59860877
5501.15,0.59973629
5509.843,0.60549469
5518.564,0.61475035
5527.312,0.61974265
5536.087,0.61945312
5544.891,0.63734104
5553.723,0.65192416
5562.582,0.63056245
5571.47,0.57278819
5580.387,0.55381081
5589.332,0.57652237
5598.305,0.58639353
5607.307,0.59226452
5616.339,0.59658282
5625.399,0.60268024
5634.489,0.61729057
5643.607,0.62725494
5652.756,0.6203897
5661.934,0.6155835
5671.142,0.62167468
5680.379,0.62716108
5689.647,0.62800466
5698.945,0.63346423
5708.274,0.6487021
5717.633,0.65511782
5727.022,0.64957761
5736.443,0.65108904
5745.894,0.65449359
5755.377,0.66313539
5764.89,0.67620477
5774.436,0.66689255
5784.012,0.65194026
5793.621,0.64908712
5803.262,0.6571977
5812.934,0.68092157
5822.639,0.69875507
5832.376,0.68329619
5842.146,0.67006851
5851.948,0.67789078
5861.783,0.69292872
5871.652,0.7099658
5881.553,0.72566045
5891.488,0.71759165
5901.457,0.69533327
5911.459,0.68782102
5921.495,0.70266483
5931.565,0.72802261
5941.67,0.72215416
5951.809,0.70353679
5961.982,0.70671111
5972.19,0.71552226
5982.433,0.72073985
5992.711,0.7131534
6003.025,0.7053123
6013.374,0.7064604
6023.759,0.70230966
6034.179,0.72155075
6044.636,0.75341138
6055.129,0.74664605
6065.658,0.74247982
6076.224,0.73209507
6086.826,0.71467688
6097.466,0.72689012
6108.143,0.74792359
6118.857,0.73459677
6129.609,0.72153191
6140.398,0.72938401
6151.226,0.73834251
6162.091,0.73727487
6172.996,0.74065922
6183.938,0.74486324
6194.92,0.73486256
6205.94,0.73150289
6217.0,0.73366827
6228.099,0.73359981
6239.237,0.73426875
6250.416,0.73481508
6261.635,0.73730966
6272.893,0.73921399
6284.193,0.73935486
6295.533,0.74007572
6306.914,0.74152383
6318.336,0.74492398
6329.799,0.75917121
6341.304,0.76974636
6352.851,0.7662
6364.44,0.7706152
6376.071,0.77036222
6387.745,0.76905796
6399.461,0.79420269
6411.221,0.82100216
6423.023,0.80231705
6434.869,0.78380887
6446.759,0.78010158
6458.693,0.78522353
6470.671,0.80689077
6482.693,0.82950715
6494.76,0.81664221
6506.872,0.80184282
6519.029,0.80003091
6531.231,0.79734006
6543.48,0.80487704
6555.774,0.81973019
6568.114,0.82802749
6580.501,0.82562991
6592.934,0.8163577
6605.415,0.81294319
6617.943,0.83165135
6630.518,0.84580688
6643.141,0.81916635
6655.812,0.80685223
6668.532,0.8161066
6681.3,0.81380436
6694.117,0.81422074
6706.983,0.82499925
6719.899,0.81810007
6732.864,0.8061755
6745.879,0.80586846
6758.945,0.81385371
6772.062,0.83012516
6785.229,0.83422743
6798.448,0.81972809
6811.718,0.81734034
6825.039,0.82004417
6838.413,0.82686258
6851.84,0.84629172
6865.319,0.8405974
6878.851,0.82334232
6892.437,0.8226364
6906.076,0.82266721
6919.769,0.81790995
6933.517,0.82117264
6947.319,0.8340801
6961.176,0.83645177
6975.089,0.83132784
6989.057,0.8311923
7003.081,0.8315042
7017.161,0.83572812
7031.298,0.84634914
7045.492,0.84840255
7059.743,0.83820449
7074.052,0.83355387
7088.419,0.83570822
7102.845,0.83940616
7117.329,0.84172274
7131.872,0.84618262
7146.475,0.85435338
7161.137,0.8545391
7175.86,0.84870944
7190.643,0.85034945
7205.487,0.85215848
7220.393,0.84828902
7235.36,0.84845131
7250.39,0.85388119
7265.481,0.85896079
7280.636,0.85802869
7295.854,0.85563328
7311.135,0.85883521
7326.481,0.86501594
7341.891,0.86432699
7357.366,0.86018146
7372.906,0.86006493
7388.512,0.86105768
7404.184,0.8619535
7419.922,0.86277142
7435.728,0.86683889
7451.601,0.8738927
7467.541,0.87437037
7483.55,0.86998291
7499.628,0.8688763
7515.774,0.87016998
7531.99,0.87151827
7548.277,0.87344147
7564.633,0.876324
7581.061,0.87830026
7597.56,0.87877032
7614.131,0.87846577
7630.774,0.87835112
7647.491,0.87907609
7664.28,0.87996222
7681.143,0.88098782
7698.08,0.88212582
7715.093,0.88310057
7732.18,0.88438941
7749.343,0.88586103
7766.583,0.88662417
7783.899,0.88718679
7801.292,0.88821112
7818.764,0.88929719
7836.313,0.89069691
7853.942,0.89248569
7871.649,0.89374038
7889.437,0.89464307
7907.305,0.89605327
7925.254,0.89752719
7943.285,0.89835611
7961.398,0.89899702
7979.594,0.89988313
7997.872,0.90098257
8016.235,0.90238888
8034.682,0.90375889
8053.214,0.90473656
8071.832,0.90570052
8090.535,0.90692065
8109.326,0.90808809
8128.204,0.90915586
8147.169,0.91014771
8166.224,0.91092261
8185.368,0.91181248
8204.601,0.9128801
8223.925,0.91376028
8243.34,0.91439498
8262.847,0.91501513
8282.446,0.91581406
8302.139,0.91677933
8321.925,0.91778938
8341.805,0.91865955
8361.781,0.91939534
8381.852,0.92023404
8402.02,0.92130032
8422.285,0.92229743
8442.648,0.92296241
8463.109,0.92356263
8483.67,0.92433139
8504.331,0.92505763
8525.092,0.92569727
8545.955,0.92646918
8566.921,0.92725957
8587.989,0.92795728
8609.161,0.92874333
8630.437,0.9295809
8651.819,0.93032863
8673.307,0.93099735
8694.902,0.93172325
8716.604,0.93256274
8738.415,0.93333747
8760.335,0.93396924
8782.365,0.93468037
8804.507,0.9355171
8826.76,0.93622499
8849.125,0.93680148
8871.604,0.9374467
8894.198,0.93819971
8916.907,0.9388799
8939.732,0.93940807
8962.673,0.93994785
8985.733,0.94049803
9008.912,0.94089623
9032.21,0.94119619
9055.629,0.94151167
9079.17,0.94183027
9102.833,0.94217491
9126.62,0.94246392
9150.531,0.94253174
9174.568,0.94256925
9198.731,0.94270649
9223.022,0.94268497
9247.441,0.94258
9271.99,0.94256778
9296.669,0.94265593
9321.48,0.94288882
9346.423,0.94316838
9371.5,0.94342289
9396.712,0.94359375
9422.06,0.94373193
9447.545,0.94398019
9473.167,0.94436579
9498.929,0.94491896
9524.832,0.94546015
9550.876,0.9459209
9577.062,0.94632857
9603.393,0.94668963
9629.868,0.94715257
9656.49,0.94758754
9683.259,0.94792077
9710.176,0.94821784
9737.244,0.94851419
9764.463,0.94886903
9791.834,0.9492661
9819.359,0.9497846
9847.039,0.95039848
9874.875,0.95084118
9902.869,0.95109064
9931.022,0.95132785
9959.336,0.95173452
9987.811,0.95231571
10016.449,0.95285636
10045.252,0.95330022
10074.221,0.95372497
10103.357,0.95420941
10132.662,0.95471634
10162.137,0.95518261
10191.784,0.95551689
10221.604,0.95584632
10251.6,0.95636406
10281.771,0.95691795
10312.121,0.95738902
10342.65,0.95776692
10373.36,0.95817812
10404.253,0.95859318
10435.331,0.95884864
10466.594,0.95900803
10498.045,0.95922246
10529.686,0.95951945
10561.517,0.95966073
10593.542,0.95973
10625.761,0.95992462
10658.176,0.96009648
10690.79,0.96026391
10723.604,0.96039962
10756.619,0.96059922
10789.839,0.96097774
10823.264,0.96121513
10856.896,0.96128729
10890.738,0.961355
10924.791,0.96138382
10959.058,0.9615491
10993.541,0.96185416
11028.24,0.96197862
11063.16,0.96192512
11098.301,0.96189835
11133.665,0.96190864
11169.256,0.96201485
11205.075,0.96226407
11241.124,0.96257819
11277.405,0.96284121
11313.921,0.96282832
11350.675,0.96263994
11387.667,0.96275685
11424.901,0.96312746
11462.38,0.96333995
11500.105,0.96349318
11538.079,0.96355524
11576.304,0.96352788
11614.783,0.96363599
11653.518,0.96378589
11692.513,0.9639474
11731.769,0.96417082
11771.29,0.96444111
11811.077,0.96464261
11851.134,0.96486842
11891.464,0.9652775
11932.068,0.96557034
11972.951,0.96557173
12014.114,0.96554141
12055.562,0.96565242
12097.296,0.96569553
12139.32,0.9655742
12181.636,0.96553633
12224.249,0.96553697
12267.16,0.96551236
12310.373,0.96556533
12353.892,0.96559348
12397.719,0.96590292
12441.859,0.96634585
12486.313,0.96642407
12531.086,0.96638921
12576.18,0.96648424
12621.601,0.96667836
12667.35,0.96667259
12713.432,0.96659305
12759.85,0.96687126
12806.608,0.96725566
12853.71,0.96752736
12901.159,0.96779389
12948.96,0.96794507
12997.116,0.96801191
13045.631,0.96810053
13094.51,0.96794988
13143.756,0.96782613
13193.373,0.96799323
13243.366,0.96816386
13293.74,0.96838561
13344.497,0.9685779
13395.644,0.96851197
13447.183,0.96841514
13499.121,0.968462
13551.461,0.96822844
13604.208,0.96793855
13657.367,0.96813656
13710.943,0.96834002
13764.941,0.96824322
13819.365,0.96802491
13874.221,0.96749387
13929.515,0.96684079
13985.25,0.9665536
14041.433,0.96634135
14098.068,0.96590584
14155.163,0.96516997
14212.721,0.96427982
14270.749,0.96373499
14329.252,0.96323968
14388.237,0.96214534
14447.709,0.96077587
14507.674,0.95939764
14568.139,0.95749285
14629.109,0.95503491
14690.592,0.95224796
14752.594,0.94874089
14815.121,0.94457454
14878.179,0.9422309
14941.777,0.93856325
15005.92,0.9287522
15070.616,0.91864776
15135.871,0.90804716
15201.695,0.89442397
15268.092,0.87789612
15335.072,0.85734314
15402.642,0.83212037
15470.81,0.80164838
15539.583,0.76929674
15608.97,0.73182769
15678.979,0.6915584
15749.619,0.65224575
15820.897,0.61097013
15892.824,0.57134486
15965.407,0.53244651
