Database of Origin,University of Winnipeg Spectrophotometer Facility
Sample Description,16.11. Meteorites - HEDs 16.11.3. NASA samples (4) Bruker Vertex 70 FTIR spectrometer
Other Information,MIR Glowbar KBr Beam Splitter MCT cryo cooled Dectect.
Date Added,2018-07-23 23:49:05.145250

Data ID,FTIR_MET2_6_1       
Sample ID,NWA 5751
Mineral Name,Howardite
Grain Size,Surface
Viewing Geometry,i30/ e0
Resolution,7.71cm-1

Wavelength
1672.316177,0.08052
1674.476792,0.07976
1676.642997,0.07901
1678.814814,0.07891
1680.992268,0.07848
1683.175374,0.07737
1685.364158,0.07639
1687.558643,0.07578
1689.758849,0.07504
1691.9648,0.07444
1694.176519,0.07416
1696.394027,0.07358
1698.61735,0.07309
1700.846507,0.07304
1703.081521,0.07316
1705.322418,0.07302
1707.569219,0.07211
1709.821949,0.07099
1712.08063,0.07016
1714.345286,0.0696
1716.615945,0.0693
1718.892624,0.06926
1721.175349,0.06977
1723.464146,0.07015
1725.759038,0.06921
1728.060049,0.06776
1730.367205,0.0673
1732.68053,0.0674
1735.000051,0.06723
1737.325788,0.06683
1739.657769,0.06623
1741.996018,0.06575
1744.340562,0.06533
1746.691425,0.06491
1749.048633,0.06463
1751.412211,0.06413
1753.78219,0.06343
1756.158588,0.06271
1758.541435,0.06213
1760.930758,0.06241
1763.326581,0.06306
1765.728933,0.06259
1768.13784,0.06124
1770.553328,0.06042
1772.975429,0.06056
1775.404162,0.06053
1777.839558,0.0599
1780.281645,0.05939
1782.73045,0.05904
1785.186001,0.05871
1787.648326,0.05866
1790.117454,0.05882
1792.593414,0.05876
1795.07623,0.05827
1797.565933,0.0577
1800.062552,0.0574
1802.566116,0.057
1805.076653,0.05673
1807.594193,0.05691
1810.118766,0.05644
1812.650403,0.05572
1815.189129,0.05533
1817.734976,0.05464
1820.287974,0.05438
1822.848154,0.05462
1825.415545,0.05469
1827.990179,0.05474
1830.572085,0.05465
1833.161299,0.05426
1835.757844,0.05383
1838.361756,0.05342
1840.973065,0.05292
1843.591803,0.05245
1846.218001,0.05221
1848.851693,0.05231
1851.492909,0.05247
1854.141686,0.05246
1856.798049,0.05239
1859.462034,0.05198
1862.133675,0.05129
1864.813003,0.05078
1867.500053,0.05079
1870.194858,0.05113
1872.897451,0.0512
1875.60787,0.05106
1878.326142,0.05084
1881.052305,0.05057
1883.786392,0.05002
1886.528439,0.0492
1889.27848,0.04897
1892.03655,0.04926
1894.802685,0.04913
1897.576923,0.04863
1900.359294,0.0484
1903.149835,0.04845
1905.948585,0.04811
1908.755578,0.04785
1911.570851,0.04828
1914.394441,0.04858
1917.226385,0.04828
1920.066724,0.04781
1922.915487,0.04747
1925.772716,0.04732
1928.638449,0.04707
1931.512723,0.04685
1934.395578,0.04713
1937.28705,0.04724
1940.18718,0.04693
1943.09601,0.04661
1946.013571,0.04647
1948.939907,0.04649
1951.875057,0.04638
1954.819061,0.04611
1957.771959,0.04591
1960.733792,0.04599
1963.7046,0.04613
1966.684429,0.04608
1969.67331,0.04602
1972.671291,0.04585
1975.678411,0.04578
1978.694713,0.04606
1981.72024,0.04634
1984.755033,0.04652
1987.799135,0.04652
1990.852594,0.04614
1993.915443,0.04563
1996.987732,0.04527
2000.069502,0.04529
2003.160799,0.0458
2006.261667,0.04626
2009.37215,0.04617
2012.492292,0.04608
2015.622144,0.04641
2018.761742,0.04657
2021.911136,0.04626
2025.070371,0.04604
2028.239495,0.04607
2031.418553,0.04617
2034.607593,0.04639
2037.806661,0.04666
2041.015809,0.04669
2044.235076,0.0467
2047.464515,0.04674
2050.704173,0.04659
2053.9541,0.04651
2057.214344,0.04668
2060.484955,0.04713
2063.765981,0.04759
2067.057478,0.04767
2070.359486,0.04767
2073.672061,0.04765
2076.995253,0.04736
2080.329113,0.04734
2083.673693,0.04782
2087.029044,0.04825
2090.39522,0.04835
2093.772276,0.04827
2097.160256,0.0484
2100.559219,0.0487
2103.969217,0.04887
2107.390304,0.04896
2110.822536,0.04924
2114.265965,0.04961
2117.720647,0.0497
2121.186643,0.04985
2124.663997,0.05018
2128.152772,0.05029
2131.653022,0.05027
2135.164806,0.05039
2138.68818,0.05073
2142.223201,0.05112
2145.769927,0.05104
2149.328422,0.05074
2152.898735,0.05099
2156.480928,0.05179
2160.075063,0.05239
2163.681197,0.05258
2167.299393,0.05278
2170.929709,0.0528
2174.572208,0.05266
2178.226956,0.05287
2181.894004,0.05327
2185.57342,0.05351
2189.265266,0.05381
2192.969606,0.05437
2196.686503,0.05486
2200.416021,0.05501
2204.158225,0.05518
2207.913183,0.05539
2211.680953,0.05544
2215.461603,0.05569
2219.255201,0.05614
2223.061813,0.05653
2226.881507,0.05677
2230.714349,0.05697
2234.560407,0.05731
2238.419756,0.05759
2242.292454,0.05782
2246.178575,0.05825
2250.07819,0.05874
2253.991369,0.05901
2257.918183,0.05903
2261.858702,0.05902
2265.813,0.05926
2269.781154,0.05982
2273.763225,0.06033
2277.759293,0.06063
2281.769432,0.06121
2285.793716,0.06213
2289.832221,0.06244
2293.88502,0.06222
2297.952192,0.06219
2302.033816,0.06246
2306.129961,0.06296
2310.240709,0.06335
2314.366139,0.06349
2318.506328,0.06372
2322.661356,0.06424
2326.831304,0.06482
2331.016252,0.06517
2335.216286,0.06546
2339.431477,0.06576
2343.661913,0.06607
2347.907677,0.06635
2352.168852,0.06666
2356.445521,0.06709
2360.737771,0.06762
2365.045686,0.06825
2369.369358,0.06876
2373.708861,0.06898
2378.06429,0.06916
2382.435731,0.06955
2386.823273,0.06978
2391.227005,0.06981
2395.647017,0.0703
2400.0834,0.07101
2404.53625,0.07149
2409.005647,0.07196
2413.491691,0.07235
2417.994473,0.07246
2422.514088,0.07252
2427.050631,0.07275
2431.604196,0.073
2436.17488,0.07324
2440.762785,0.07363
2445.367997,0.0741
2449.99062,0.07453
2454.630753,0.075
2459.288496,0.07534
2463.963948,0.07549
2468.657212,0.07564
2473.368389,0.07596
2478.097588,0.07635
2482.844901,0.07653
2487.610438,0.07655
2492.394303,0.0767
2497.196603,0.07698
2502.017445,0.07743
2506.856937,0.07798
2511.715186,0.07839
2516.592308,0.07851
2521.488402,0.07828
2526.403583,0.07813
2531.337964,0.07847
2536.291658,0.079
2541.264778,0.0793
2546.257439,0.07952
2551.269756,0.0798
2556.301852,0.07983
2561.353831,0.07995
2566.425818,0.08051
2571.517932,0.08082
2576.630293,0.08085
2581.763021,0.08083
2586.91624,0.08074
2592.090072,0.08085
2597.284647,0.08125
2602.500077,0.08154
2607.736495,0.08169
2612.994027,0.08165
2618.272802,0.0818
2623.572949,0.08201
2628.894597,0.082
2634.237878,0.08215
2639.60293,0.08215
2644.989874,0.08197
2650.398851,0.08186
2655.829995,0.08189
2661.283444,0.08175
2666.759335,0.08123
2672.257807,0.08084
2677.779,0.08048
2683.323062,0.07951
2688.890121,0.07748
2694.480328,0.07408
2700.093828,0.07009
2705.730766,0.0661
2711.39129,0.06205
2717.075548,0.05847
2722.783689,0.05528
2728.515871,0.05269
2734.272233,0.05027
2740.052934,0.04783
2745.85813,0.04614
2751.687977,0.04485
2757.542631,0.04344
2763.422252,0.04197
2769.327,0.04068
2775.257043,0.03975
2781.212529,0.03905
2787.19363,0.03851
2793.200512,0.0378
2799.233341,0.03704
2805.292287,0.03665
2811.377519,0.03628
2817.489208,0.03574
2823.627536,0.03532
2829.79266,0.03493
2835.984766,0.03455
2842.20403,0.03427
2848.450631,0.03394
2854.72475,0.03348
2861.02657,0.03315
2867.356274,0.03304
2873.714055,0.03289
2880.100086,0.03259
2886.514561,0.0322
2892.957673,0.03185
2899.429613,0.03154
2905.930575,0.03135
2912.460755,0.03148
2919.020351,0.03174
2925.609569,0.03178
2932.228594,0.03154
2938.877637,0.03135
2945.556904,0.03135
2952.266599,0.03136
2959.006933,0.03139
2965.778115,0.03149
2972.580357,0.03153
2979.413883,0.03155
2986.278891,0.03149
2993.175608,0.03143
3000.104254,0.03163
3007.065051,0.03194
3014.058225,0.03211
3021.084,0.03217
3028.142607,0.03233
3035.234283,0.03256
3042.359245,0.03263
3049.517737,0.03262
3056.709994,0.03271
3063.936258,0.03288
3071.196769,0.03302
3078.491772,0.03322
3085.821513,0.03349
3093.186251,0.03364
3100.586217,0.03378
3108.021674,0.03396
3115.492879,0.03398
3123.000089,0.03415
3130.543567,0.0347
3138.123574,0.03523
3145.740377,0.03559
3153.394256,0.03585
3161.08546,0.03591
3168.814274,0.03603
3176.580974,0.03662
3184.38584,0.03743
3192.229154,0.03797
3200.1112,0.03816
3208.032266,0.0384
3215.992653,0.03889
3223.992633,0.03929
3232.032514,0.03953
3240.112594,0.03979
3248.233176,0.04013
3256.394564,0.04068
3264.597068,0.04133
3272.840999,0.04182
3281.126681,0.04206
3289.454413,0.04236
3297.824524,0.0429
3306.237341,0.04336
3314.693189,0.04348
3323.192401,0.04337
3331.735311,0.04332
3340.322256,0.04343
3348.95359,0.04368
3357.629634,0.04417
3366.350748,0.04482
3375.117285,0.04541
3383.929601,0.04578
3392.788054,0.04579
3401.693008,0.04562
3410.64483,0.04574
3419.643903,0.04617
3428.690579,0.04676
3437.785247,0.04733
3446.928291,0.04771
3456.120099,0.04803
3465.36106,0.04827
3474.651571,0.04853
3483.99203,0.04902
3493.382855,0.04947
3502.824429,0.0498
3512.317177,0.05024
3521.861515,0.05092
3531.457866,0.05169
3541.106657,0.05214
3550.808317,0.05234
3560.563284,0.05264
3570.372009,0.05292
3580.234914,0.05315
3590.15246,0.05342
3600.125104,0.05367
3610.153306,0.0539
3620.237532,0.05399
3630.378252,0.05394
3640.575942,0.05405
3650.831097,0.05442
3661.144177,0.05484
3671.515689,0.05511
3681.946129,0.05537
3692.436003,0.05571
3702.985818,0.05606
3713.596091,0.05631
3724.267342,0.05655
3735.000113,0.05668
3745.79491,0.05667
3756.652285,0.05687
3767.572784,0.05713
3778.556959,0.05715
3789.605369,0.05706
3800.71858,0.05707
3811.897162,0.05731
3823.141709,0.05766
3834.452778,0.0578
3845.830974,0.05776
3857.276898,0.05776
3868.791155,0.05788
3880.37436,0.05811
3892.027134,0.0582
3903.750106,0.05801
3915.543926,0.05782
3927.409209,0.05772
3939.346621,0.05761
3951.356822,0.05755
3963.44048,0.05741
3975.598271,0.05713
3987.830879,0.05693
4000.138997,0.05698
4012.523342,0.05716
4024.984593,0.05712
4037.523484,0.05675
4050.140742,0.05651
4062.837106,0.05649
4075.613322,0.05648
4088.470144,0.0565
4101.408338,0.05645
4114.428697,0.05608
4127.531971,0.05555
4140.718972,0.05514
4153.990505,0.05495
4167.347385,0.05494
4180.790439,0.05509
4194.320503,0.05582
4207.938425,0.05758
4221.64508,0.05988
4235.441304,0.06065
4249.327994,0.05941
4263.306045,0.05849
4277.376359,0.05804
4291.539855,0.05734
4305.79746,0.05625
4320.150116,0.0548
4334.598795,0.05345
4349.144426,0.05251
4363.788008,0.05198
4378.530532,0.05168
4393.373006,0.05138
4408.316449,0.05106
4423.361896,0.05062
4438.510393,0.05025
4453.763023,0.0503
4469.120824,0.05031
4484.584908,0.04986
4500.15638,0.04941
4515.836365,0.04912
4531.626,0.04875
4547.52644,0.04801
4563.538854,0.04713
4579.664452,0.04666
4595.904394,0.04639
4612.259923,0.04588
4628.732277,0.04504
4645.322713,0.04407
4662.032504,0.04313
4678.862943,0.04203
4695.815342,0.04094
4712.891054,0.04013
4730.091384,0.03939
4747.417723,0.03858
4764.871462,0.03799
4782.45401,0.0375
4800.1668,0.03687
4818.011283,0.03627
4835.988934,0.03579
4854.101273,0.0352
4872.349771,0.03456
4890.735994,0.03416
4909.261506,0.03397
4927.927896,0.03367
4946.736778,0.03308
4965.68979,0.03229
4984.788594,0.03179
5004.034903,0.03161
5023.430384,0.03144
5042.976803,0.03121
5062.675928,0.03082
5082.529556,0.03019
5102.539511,0.02955
5122.707649,0.02906
5143.03585,0.02866
5163.526056,0.02836
5184.180157,0.02823
5205.000154,0.02826
5225.988055,0.02843
5247.145898,0.02871
5268.475756,0.02895
5289.979735,0.02916
5311.659976,0.02941
5333.518684,0.02964
5355.558014,0.02969
5377.780242,0.02954
5400.187657,0.02925
5422.78258,0.02895
5445.567377,0.02903
5468.544451,0.02931
5491.716246,0.02938
5515.085278,0.02926
5538.654014,0.02916
5562.425058,0.02896
5586.401024,0.02842
5610.584574,0.02783
5634.978416,0.02727
5659.585305,0.02682
5684.408043,0.02672
5709.449517,0.02664
5734.712564,0.02635
5760.200171,0.02595
5785.915346,0.02563
5811.861151,0.02542
5838.040701,0.02498
5864.457171,0.02434
5891.11379,0.02346
5918.013883,0.0226
5945.160732,0.02168
5972.557781,0.0207
6000.208507,0.02036
6028.116449,0.02067
6056.285213,0.0209
6084.718472,0.02073
6113.41997,0.02072
6142.393557,0.02092
6171.643046,0.02103
6201.172433,0.02104
6230.985758,0.02119
6261.087133,0.02144
6291.480755,0.02164
6322.1709,0.02178
6353.161929,0.02191
6384.458328,0.02207
6416.064553,0.02217
6447.985267,0.0222
6480.225188,0.02219
6512.789128,0.0219
6545.681997,0.02157
6578.908804,0.0213
6612.47466,0.0209
6646.384825,0.02046
6680.644535,0.02033
6715.259268,0.02021
6750.234571,0.01987
6785.576107,0.01957
6821.28966,0.01949
6857.381134,0.01933
6893.856559,0.01881
6930.722144,0.01833
6967.984085,0.01807
7005.648858,0.01787
7043.72303,0.01777
7082.213314,0.01767
7121.126567,0.01743
7160.469802,0.01715
7200.250183,0.01699
7240.47509,0.01683
7281.15191,0.01661
7322.288355,0.01639
7363.892259,0.01601
7405.971636,0.0155
7448.534685,0.01508
7491.589791,0.01467
7535.145539,0.01421
7579.210768,0.01375
7623.794353,0.01335
7668.905555,0.01292
7714.553795,0.01258
7760.74872,0.01231
7807.500211,0.01197
7854.818386,0.01149
7902.713612,0.01098
7951.196573,0.0106
8000.278026,0.01008
8049.969186,0.00948
8100.281485,0.00906
8151.226643,0.0088
8202.816677,0.00864
8255.063908,0.00865
8307.980976,0.00881
8361.580914,0.00915
8415.876885,0.00959
8470.882607,0.01011
8526.612089,0.0108
8583.07971,0.01157
8640.300232,0.01268
8698.288814,0.01482
8757.061026,0.01878
8816.632938,0.02572
8877.020825,0.03745
8938.241648,0.05461
9000.312761,0.0745
9063.252001,0.09222
9127.077709,0.10321
9191.808745,0.1064
9257.464511,0.10454
9324.065051,0.10115
9391.630729,0.09906
9460.182767,0.09877
9529.742923,0.0985
9600.3336,0.09688
9671.977869,0.09419
9744.699495,0.08983
9818.522964,0.08289
9893.473606,0.07661
9969.577237,0.07623
10046.86077,0.08164
10125.35186,0.08798
10205.07902,0.09323
10286.0717,0.09892
10368.36026,0.10423
10451.97605,0.10688
10536.95157,0.10648
10623.32001,0.10447
10711.11603,0.10128
10800.37531,0.09476
10891.13475,0.08564
10983.43249,0.0802
11077.30797,0.08539
11172.80199,0.09942
11269.9569,0.10996
11368.81615,0.10954
11469.42513,0.10191
11571.83069,0.09232
11676.0814,0.08306
11782.22758,0.07498
11890.32139,0.06852
12000.41694,0.0637
12112.5705,0.05965
12226.84001,0.05565
12343.28609,0.05194
12461.97152,0.04864
12582.96151,0.04556
12706.32386,0.04303
12832.12902,0.04119
12960.45029,0.03947
13091.36408,0.03744
13224.94941,0.03509
13361.28907,0.03331
13500.46914,0.03294
13642.57932,0.03384
13787.71312,0.03496
13935.96807,0.03454
14087.44596,0.03238
14242.25324,0.03006
14400.50047,0.02927
14562.30382,0.03051
14727.78452,0.03152
14897.06937,0.0302
15070.29108,0.0276
15247.58859,0.02773
15429.10747,0.03264
15615.00054,0.0382
15805.42735,0.03991
16000.55605,0.03837
16200.56297,0.03903
16405.63335,0.04875
16615.96195,0.06568
16831.75363,0.07995
17053.22403,0.08703
17280.60061,0.09195
17514.12221,0.09889
17754.04165,0.10499
18000.62552,0.10928
18254.15542,0.11574
18514.92902,0.12255
18783.26128,0.12736
19059.48566,0.13744
19343.95592,0.15359
19637.04612,0.16299
19939.15447,0.16073
20250.70371,0.15274
20572.1434,0.14083
20903.95211,0.12507
21246.63979,0.11129
21600.75039,0.10196
21966.86522,0.09594
22345.60422,0.0943
22737.6323,0.09189
23143.66139,0.08646
23564.45516,0.08764
24000.83388,0.09707
24453.67973,0.09899
24923.94272,0.09433
25412.64804,0.09298
