Database of Origin,University of Winnipeg Spectrophotometer Facility
Sample Description,"HOSERLab master pyroxenes, FTIR data"
Date Added,2016-12-14 03:34:50.001945

Data ID,FTIR_PYX_16         
Sample ID,PYX119
Mineral Name,Orthopyroxene
Grain Size,<45 um
Viewing Geometry,"i=30, e=0"
Material Class,Inosilicate

Wavelength
2000.56,0.34361445
2001.142,0.34355199
2001.725,0.3433845
2002.307,0.34325007
2002.891,0.34318812
2003.474,0.34326128
2004.058,0.34349971
2004.643,0.3437793
2005.227,0.34396891
2005.812,0.34410564
2006.397,0.34426156
2006.983,0.34440758
2007.569,0.34454139
2008.155,0.34475427
2008.742,0.34504135
2009.329,0.34526281
2009.916,0.34536264
2010.504,0.34541921
2011.092,0.34547269
2011.68,0.3455173
2012.269,0.34561373
2012.858,0.34581588
2013.447,0.34604507
2014.037,0.3461964
2014.627,0.34626926
2015.217,0.34630783
2015.808,0.34634138
2016.399,0.34644565
2016.99,0.34669447
2017.582,0.34702221
2018.174,0.34725897
2018.766,0.34731792
2019.359,0.3472557
2019.952,0.34718828
2020.546,0.34720061
2021.139,0.34729529
2021.733,0.34738821
2022.328,0.34742436
2022.923,0.3474648
2023.518,0.34760246
2024.113,0.34783747
2024.709,0.34810292
2025.305,0.34833104
2025.902,0.34847836
2026.499,0.34854626
2027.096,0.34858788
2027.693,0.34863089
2028.291,0.34865432
2028.89,0.34867761
2029.488,0.34878014
2030.087,0.34897656
2030.686,0.34919117
2031.286,0.34937227
2031.886,0.34954375
2032.486,0.34975063
2033.087,0.35003053
2033.688,0.35037215
2034.289,0.35065536
2034.891,0.35074104
2035.493,0.35064561
2036.096,0.35050423
2036.698,0.35040028
2037.302,0.35036614
2037.905,0.35046453
2038.509,0.35069097
2039.113,0.35091968
2039.718,0.35108213
2040.322,0.35124385
2040.928,0.35140736
2041.533,0.35147179
2042.139,0.35144501
2042.746,0.35146066
2043.352,0.35155671
2043.959,0.35167138
2044.567,0.35181956
2045.174,0.35204761
2045.782,0.35228499
2046.391,0.35245853
2047.0,0.35260974
2047.609,0.35275565
2048.218,0.35280905
2048.828,0.35276683
2049.438,0.35276388
2050.049,0.35286842
2050.66,0.353021
2051.271,0.35319133
2051.883,0.35337593
2052.495,0.35348211
2053.107,0.35340997
2053.72,0.35323392
2054.333,0.35313334
2054.947,0.35319606
2055.56,0.35336842
2056.175,0.353549
2056.789,0.35368219
2057.404,0.35381183
2058.019,0.35401403
2058.635,0.35426475
2059.251,0.35445305
2059.867,0.35454254
2060.484,0.35459098
2061.101,0.35463689
2061.718,0.35468994
2062.336,0.35477899
2062.954,0.35486962
2063.573,0.35486505
2064.192,0.35479204
2064.811,0.35482704
2065.431,0.35502577
2066.051,0.35525489
2066.671,0.35543786
2067.292,0.35560945
2067.913,0.35570603
2068.534,0.35562735
2069.156,0.35548741
2069.778,0.35549713
2070.401,0.35564482
2071.024,0.3558053
2071.647,0.35602703
2072.271,0.3564005
2072.895,0.35680079
2073.519,0.35707386
2074.144,0.35727878
2074.769,0.35749159
2075.395,0.35761077
2076.02,0.35758829
2076.647,0.35757055
2077.273,0.35761851
2077.9,0.35759872
2078.528,0.35751923
2079.155,0.3576134
2079.784,0.35797057
2080.412,0.35839553
2081.041,0.35873823
2081.67,0.3590357
2082.3,0.35928967
2082.93,0.35941812
2083.56,0.35946444
2084.191,0.3595612
2084.822,0.35970871
2085.454,0.35981457
2086.085,0.35990227
2086.718,0.36005324
2087.35,0.36022824
2087.983,0.3603333
2088.617,0.36038462
2089.251,0.36046111
2089.885,0.36058257
2090.519,0.36072796
2091.154,0.36089437
2091.789,0.36106938
2092.425,0.36122417
2093.061,0.36134794
2093.697,0.36145073
2094.334,0.36153942
2094.971,0.36161391
2095.609,0.36165458
2096.247,0.36164052
2096.885,0.36161085
2097.524,0.36164848
2098.163,0.3617537
2098.803,0.36185478
2099.443,0.36196067
2100.083,0.36213644
2100.723,0.36232091
2101.364,0.36239045
2102.006,0.36237582
2102.648,0.36238568
2103.29,0.36238336
2103.932,0.36230283
2104.575,0.36224977
2105.219,0.36232029
2105.862,0.36237951
2106.506,0.36229592
2107.151,0.36219379
2107.796,0.36222152
2108.441,0.36230492
2109.087,0.3623553
2109.733,0.36243844
2110.379,0.36256006
2111.026,0.36255878
2111.673,0.36239957
2112.321,0.36227003
2112.969,0.36228257
2113.617,0.36234995
2114.266,0.36241775
2114.915,0.36254296
2115.565,0.36271101
2116.215,0.3628169
2116.865,0.36288053
2117.516,0.36306032
2118.167,0.36340743
2118.819,0.36378284
2119.471,0.3640614
2120.123,0.36426705
2120.776,0.36444095
2121.429,0.36453027
2122.082,0.36451532
2122.736,0.36451004
2123.391,0.36459353
2124.045,0.36468162
2124.7,0.36472015
2125.356,0.3648404
2126.012,0.36512927
2126.668,0.36542984
2127.325,0.36558433
2127.982,0.36564896
2128.64,0.36568785
2129.297,0.36563991
2129.956,0.36556146
2130.614,0.36565704
2131.274,0.36590397
2131.933,0.36604439
2132.593,0.36606017
2133.253,0.36620549
2133.914,0.36650052
2134.575,0.36668943
2135.237,0.36671716
2135.899,0.36676388
2136.561,0.36684555
2137.224,0.3668487
2137.887,0.36687888
2138.55,0.36713127
2139.214,0.36753821
2139.879,0.3679006
2140.544,0.36818561
2141.209,0.36840945
2141.874,0.3684731
2142.54,0.3683557
2143.207,0.36823655
2143.873,0.36823565
2144.541,0.36829449
2145.208,0.36838301
2145.876,0.36856585
2146.545,0.36880679
2147.214,0.36897411
2147.883,0.36904316
2148.553,0.36910587
2149.223,0.3691997
2149.893,0.36927727
2150.564,0.36931021
2151.235,0.36932699
2151.907,0.36938557
2152.579,0.36953687
2153.252,0.36977395
2153.925,0.37003389
2154.598,0.37027409
2155.272,0.37049306
2155.946,0.37067561
2156.621,0.37080992
2157.296,0.37093803
2157.972,0.37108413
2158.647,0.37119266
2159.324,0.37125578
2160.001,0.37138941
2160.678,0.37164721
2161.355,0.37189776
2162.033,0.37203355
2162.712,0.37215148
2163.39,0.37237787
2164.07,0.37266471
2164.749,0.3728951
2165.429,0.37303015
2166.11,0.37305621
2166.791,0.37297158
2167.472,0.37290863
2168.154,0.37307231
2168.836,0.37347406
2169.519,0.37390281
2170.202,0.37419823
2170.885,0.37434766
2171.569,0.37432839
2172.254,0.37411241
2172.938,0.37384024
2173.624,0.37373291
2174.309,0.37381452
2174.995,0.37393533
2175.682,0.37403635
2176.368,0.37418159
2177.056,0.37437717
2177.743,0.37457156
2178.432,0.37477693
2179.12,0.374989
2179.809,0.37508382
2180.499,0.37497884
2181.189,0.37479678
2181.879,0.37474056
2182.57,0.37489248
2183.261,0.37521637
2183.952,0.37563387
2184.644,0.37601781
2185.337,0.37624712
2186.03,0.37632895
2186.723,0.37638599
2187.417,0.37651569
2188.111,0.37672743
2188.806,0.37697615
2189.501,0.37719393
2190.196,0.37732761
2190.892,0.37737226
2191.589,0.37735022
2192.285,0.37728592
2192.983,0.37723967
2193.68,0.37729241
2194.379,0.37744974
2195.077,0.37764918
2195.776,0.37787058
2196.476,0.37812562
2197.175,0.3783614
2197.876,0.37851668
2198.577,0.3786255
2199.278,0.37873695
2199.979,0.37881371
2200.682,0.3788504
2201.384,0.37894905
2202.087,0.37914694
2202.79,0.37931929
2203.494,0.3793779
2204.199,0.37940649
2204.903,0.37950157
2205.609,0.379631
2206.314,0.37974621
2207.02,0.37988129
2207.727,0.3800706
2208.434,0.3802798
2209.141,0.38047239
2209.849,0.38064219
2210.557,0.38075685
2211.266,0.38076921
2211.975,0.38072432
2212.685,0.38076619
2213.395,0.38096743
2214.106,0.38122058
2214.817,0.38138149
2215.528,0.38144806
2216.24,0.38148527
2216.952,0.38147446
2217.665,0.38139505
2218.379,0.38135163
2219.092,0.38143208
2219.806,0.38155002
2220.521,0.38160546
2221.236,0.38164385
2221.952,0.38169583
2222.668,0.38167907
2223.384,0.38161655
2224.101,0.38167311
2224.818,0.38184951
2225.536,0.38194177
2226.254,0.38188919
2226.973,0.38183636
2227.692,0.38183514
2228.412,0.38182211
2229.132,0.38183527
2229.853,0.38192277
2230.574,0.38194762
2231.295,0.38178265
2232.017,0.38153451
2232.74,0.38133235
2233.462,0.38114684
2234.186,0.3809761
2234.91,0.3809345
2235.634,0.38104512
2236.359,0.38121215
2237.084,0.38140293
2237.809,0.38160757
2238.536,0.38169636
2239.262,0.38156885
2239.989,0.38129993
2240.717,0.38099119
2241.445,0.38066795
2242.173,0.38040631
2242.902,0.38029351
2243.631,0.38026598
2244.361,0.3802302
2245.092,0.38024302
2245.822,0.38034083
2246.554,0.38039987
2247.285,0.38037793
2248.017,0.38042347
2248.75,0.3805787
2249.483,0.38072274
2250.217,0.38087401
2250.951,0.38115504
2251.686,0.38147062
2252.421,0.38163089
2253.156,0.3817126
2253.892,0.38189598
2254.628,0.38211459
2255.365,0.38223817
2256.103,0.38234565
2256.841,0.38250387
2257.579,0.38258194
2258.318,0.38254306
2259.057,0.38257467
2259.797,0.38274086
2260.537,0.38286243
2261.278,0.38285677
2262.019,0.38283783
2262.761,0.38283383
2263.503,0.38275074
2264.246,0.38260459
2264.989,0.38249199
2265.732,0.38238763
2266.477,0.3822162
2267.221,0.3820361
2267.966,0.38194047
2268.712,0.38189726
2269.458,0.38184215
2270.204,0.38182243
2270.951,0.3819163
2271.699,0.38210413
2272.447,0.38229856
2273.195,0.38243799
2273.944,0.3825031
2274.694,0.38250475
2275.444,0.38248561
2276.194,0.38250194
2276.945,0.38256409
2277.696,0.38260189
2278.448,0.38254614
2279.201,0.38244993
2279.954,0.38246331
2280.707,0.38264516
2281.461,0.38286434
2282.215,0.38294943
2282.97,0.38287102
2283.725,0.3827235
2284.481,0.3825903
2285.237,0.38249836
2285.994,0.38245326
2286.752,0.38244134
2287.509,0.38243057
2288.268,0.3824035
2289.026,0.38235594
2289.786,0.3822445
2290.545,0.38201402
2291.306,0.38170477
2292.067,0.38147069
2292.828,0.38143061
2293.59,0.38153465
2294.352,0.38163173
2295.115,0.38162629
2295.878,0.38150903
2296.642,0.38129601
2297.406,0.38104294
2298.171,0.3808608
2298.936,0.38081656
2299.702,0.3808571
2300.468,0.38091103
2301.235,0.38098185
2302.002,0.38105862
2302.77,0.38105067
2303.539,0.38092249
2304.307,0.38077806
2305.077,0.3807103
2305.847,0.38068367
2306.617,0.38064108
2307.388,0.38059527
2308.159,0.38053916
2308.931,0.38040174
2309.703,0.38017034
2310.476,0.37994184
2311.25,0.37978652
2312.024,0.37966297
2312.798,0.37952071
2313.573,0.3793864
2314.348,0.37931097
2315.124,0.37928698
2315.901,0.37927188
2316.678,0.37924097
2317.455,0.37918221
2318.234,0.37907989
2319.012,0.37896278
2319.791,0.37891716
2320.571,0.37899214
2321.351,0.37912885
2322.131,0.37925841
2322.913,0.37940687
2323.694,0.37961717
2324.476,0.37985155
2325.259,0.38007419
2326.042,0.38032962
2326.826,0.38063286
2327.61,0.38089792
2328.395,0.38108037
2329.18,0.38125565
2329.966,0.38147515
2330.753,0.38168852
2331.54,0.38187561
2332.327,0.38208932
2333.115,0.38233465
2333.903,0.38256012
2334.692,0.3827842
2335.482,0.38308943
2336.272,0.38350548
2337.062,0.38400234
2337.854,0.38455398
2338.645,0.38513226
2339.437,0.3856875
2340.23,0.38617773
2341.023,0.38658142
2341.817,0.38690017
2342.611,0.38718645
2343.406,0.38751358
2344.201,0.38788431
2344.997,0.38824471
2345.794,0.38856843
2346.591,0.38884104
2347.388,0.38903877
2348.186,0.38923478
2348.985,0.38957927
2349.784,0.39006183
2350.583,0.39048699
2351.384,0.39076367
2352.184,0.39099239
2352.986,0.39122978
2353.787,0.39145062
2354.59,0.39171423
2355.393,0.39205494
2356.196,0.39229469
2357.0,0.39228304
2357.804,0.39217703
2358.609,0.39217518
2359.415,0.3922066
2360.221,0.39216571
2361.028,0.3921619
2361.835,0.39226898
2362.643,0.39234053
2363.451,0.39229118
2364.26,0.39223746
2365.069,0.39223876
2365.879,0.39221178
2366.69,0.39217036
2367.501,0.39221115
2368.312,0.3922722
2369.125,0.39219594
2369.937,0.39198209
2370.751,0.39173299
2371.564,0.39146797
2372.379,0.39118886
2373.194,0.39098333
2374.009,0.39090185
2374.825,0.3908655
2375.642,0.39080763
2376.459,0.39077517
2377.276,0.39083888
2378.095,0.39100355
2378.913,0.39121929
2379.733,0.3914051
2380.553,0.39149628
2381.373,0.39151458
2382.194,0.39155916
2383.016,0.39171969
2383.838,0.39202236
2384.661,0.39240646
2385.484,0.39273467
2386.308,0.39290823
2387.132,0.39298854
2387.957,0.39309791
2388.783,0.39323825
2389.609,0.39334689
2390.435,0.39346719
2391.263,0.39368567
2392.09,0.39395963
2392.919,0.39418782
2393.748,0.39438079
2394.577,0.39460963
2395.407,0.39486702
2396.238,0.39511641
2397.069,0.39538421
2397.901,0.39567136
2398.733,0.3959096
2399.566,0.39610006
2400.399,0.3963598
2401.233,0.39672095
2402.068,0.39705575
2402.903,0.39727772
2403.739,0.39745896
2404.575,0.39765877
2405.412,0.39782633
2406.25,0.39796085
2407.088,0.39816641
2407.926,0.39844758
2408.766,0.39865057
2409.606,0.39870883
2410.446,0.39874676
2411.287,0.39885526
2412.128,0.39897535
2412.971,0.39907965
2413.813,0.39924376
2414.657,0.39947894
2415.5,0.39970546
2416.345,0.39992405
2417.19,0.40020556
2418.036,0.40050867
2418.882,0.40071943
2419.729,0.40084672
2420.576,0.40096893
2421.424,0.401054
2422.272,0.40103303
2423.122,0.40097685
2423.971,0.4010055
2424.822,0.4011016
2425.673,0.40118336
2426.524,0.4012742
2427.376,0.4014367
2428.229,0.40163354
2429.082,0.4017838
2429.936,0.4018758
2430.791,0.40193059
2431.646,0.40194171
2432.501,0.40194247
2433.358,0.40203432
2434.214,0.40224873
2435.072,0.40246411
2435.93,0.40256606
2436.789,0.40259832
2437.648,0.40264847
2438.508,0.40268292
2439.368,0.40264514
2440.229,0.40260678
2441.091,0.4026679
2441.953,0.40280297
2442.816,0.40295207
2443.679,0.40313292
2444.543,0.40333106
2445.408,0.40345485
2446.273,0.40352063
2447.139,0.40368658
2448.006,0.40399654
2448.873,0.40430579
2449.74,0.40450853
2450.609,0.40461528
2451.478,0.40462391
2452.347,0.40456937
2453.217,0.4046162
2454.088,0.40485584
2454.959,0.40514501
2455.831,0.40535775
2456.704,0.40556733
2457.577,0.40580675
2458.451,0.40594521
2459.325,0.40594754
2460.2,0.40594413
2461.076,0.40598257
2461.952,0.40603414
2462.829,0.40618802
2463.707,0.40650646
2464.585,0.40681531
2465.464,0.40695378
2466.343,0.40702459
2467.223,0.40714311
2468.104,0.40723437
2468.985,0.40727459
2469.867,0.40738037
2470.749,0.40754165
2471.632,0.4076326
2472.516,0.4076917
2473.4,0.40782524
2474.285,0.40794352
2475.171,0.4079382
2476.057,0.40791982
2476.944,0.4079726
2477.832,0.40795704
2478.72,0.4078008
2479.608,0.40766151
2480.498,0.40765065
2481.388,0.40773207
2482.278,0.4079276
2483.17,0.40825297
2484.062,0.40851788
2484.954,0.4085543
2485.847,0.40849276
2486.741,0.40852101
2487.636,0.40861385
2488.531,0.40870739
2489.427,0.40882857
2490.323,0.4089064
2491.22,0.40881706
2492.118,0.4086776
2493.016,0.40872925
2493.915,0.40896214
2494.814,0.40919583
2495.715,0.40939316
2496.615,0.40956712
2497.517,0.40961028
2498.419,0.40951503
2499.322,0.40947287
2500.225,0.40953862
2501.129,0.4095397
2502.034,0.40946546
2502.939,0.40953521
2503.845,0.40977375
2504.752,0.40997465
2505.659,0.41010722
2506.567,0.41030109
2507.476,0.41046272
2508.385,0.4104223
2509.295,0.4103547
2510.206,0.41054105
2511.117,0.41085307
2512.029,0.4109941
2512.942,0.411025
2513.855,0.41114079
2514.769,0.41121835
2515.683,0.41113091
2516.598,0.41112007
2517.514,0.4113494
2518.431,0.41155333
2519.348,0.41161066
2520.266,0.41185692
2521.184,0.41238914
2522.103,0.4127451
2523.023,0.41271028
2523.944,0.4126584
2524.865,0.41274597
2525.787,0.41268436
2526.709,0.41256689
2527.632,0.41285009
2528.556,0.41339551
2529.48,0.4135928
2530.406,0.41346999
2531.331,0.41355058
2532.258,0.41375459
2533.185,0.41365557
2534.113,0.41354605
2535.041,0.41392664
2535.971,0.41446
2536.9,0.41461692
2537.831,0.4147121
2538.762,0.41510795
2539.694,0.41534947
2540.627,0.41506049
2541.56,0.414776
2542.494,0.41494252
2543.428,0.41510201
2544.364,0.41498626
2545.3,0.41513848
2546.236,0.41569423
2547.174,0.41596798
2548.112,0.41581221
2549.05,0.41595601
2549.99,0.4165017
2550.93,0.41663587
2551.87,0.41623408
2552.812,0.41613531
2553.754,0.41644763
2554.697,0.41640775
2555.64,0.41604412
2556.585,0.41609559
2557.529,0.41647413
2558.475,0.4164196
2559.421,0.41612841
2560.368,0.41645147
2561.316,0.4170202
2562.264,0.41671442
2563.213,0.41610547
2564.163,0.41639945
2565.113,0.41705744
2566.065,0.41709927
2567.016,0.4170983
2567.969,0.41776093
2568.922,0.41827511
2569.876,0.41790224
2570.831,0.41772858
2571.786,0.41841558
2572.742,0.41872169
2573.699,0.41803319
2574.656,0.41778549
2575.615,0.41841072
2576.573,0.41845048
2577.533,0.41780731
2578.493,0.41808365
2579.454,0.41917332
2580.416,0.41941884
2581.378,0.41898145
2582.342,0.41946735
2583.305,0.42040522
2584.27,0.42012684
2585.235,0.41956224
2586.201,0.42016001
2587.168,0.42075166
2588.135,0.4199715
2589.103,0.41931565
2590.072,0.42005481
2591.042,0.42112895
2592.012,0.42187285
2592.983,0.42353432
2593.955,0.42586345
2594.927,0.42571654
2595.9,0.42310153
2596.874,0.42165827
2597.849,0.42176968
2598.824,0.42169184
2599.8,0.42142704
2600.777,0.42205038
2601.755,0.42303119
2602.733,0.42309774
2603.712,0.42290394
2604.692,0.42347384
2605.672,0.42373939
2606.653,0.42285115
2607.635,0.42216944
2608.618,0.42238841
2609.601,0.42237485
2610.585,0.42172998
2611.57,0.42154117
2612.556,0.4221656
2613.542,0.42278327
2614.529,0.42316642
2615.517,0.4237996
2616.505,0.42444085
2617.495,0.42449095
2618.485,0.42432391
2619.475,0.42443209
2620.467,0.42431849
2621.459,0.42370494
2622.452,0.42328453
2623.446,0.4235271
2624.44,0.42403547
2625.435,0.42436771
2626.431,0.42461797
2627.428,0.42502317
2628.426,0.4255226
2629.424,0.42591374
2630.423,0.42601393
2631.423,0.42569423
2632.423,0.42506016
2633.424,0.4243936
2634.426,0.42393315
2635.429,0.42375209
2636.432,0.42377335
2637.437,0.42384048
2638.442,0.42387179
2639.447,0.42388361
2640.454,0.42386741
2641.461,0.42384236
2642.469,0.42395529
2643.478,0.42426542
2644.488,0.42450407
2645.498,0.42443535
2646.509,0.42423362
2647.521,0.42415607
2648.534,0.4241802
2649.547,0.42426086
2650.561,0.42444968
2651.576,0.42461384
2652.592,0.42454778
2653.609,0.42437504
2654.626,0.4242799
2655.644,0.42410468
2656.663,0.42378714
2657.682,0.42357651
2658.703,0.4234347
2659.724,0.42297266
2660.746,0.42237267
2661.768,0.42239293
2662.792,0.42318084
2663.816,0.4241343
2664.841,0.42481341
2665.867,0.42510308
2666.894,0.42485164
2667.921,0.42425318
2668.949,0.42379568
2669.978,0.42299582
2671.008,0.42071691
2672.038,0.41745334
2673.07,0.4149324
2674.102,0.41348051
2675.135,0.41198242
2676.168,0.40944437
2677.203,0.40556404
2678.238,0.40020921
2679.274,0.39377277
2680.311,0.38742569
2681.349,0.38170627
2682.387,0.37589444
2683.426,0.36922624
2684.467,0.36189912
2685.507,0.35430426
2686.549,0.34630129
2687.591,0.33796979
2688.635,0.33001183
2689.679,0.32294448
2690.724,0.31684393
2691.769,0.31176058
2692.816,0.30743539
2693.863,0.30267021
2694.911,0.29617223
2695.96,0.28825801
2697.01,0.28028028
2698.06,0.2729587
2699.112,0.26646443
2700.164,0.26091152
2701.217,0.25603463
2702.27,0.25117018
2703.325,0.24610194
2704.38,0.24124591
2705.437,0.23693323
2706.494,0.23331889
2707.552,0.23073104
2708.61,0.22917942
2709.67,0.22744971
2710.73,0.22383268
2711.791,0.2183547
2712.853,0.21271896
2713.916,0.20803463
2714.98,0.20461287
2716.044,0.20303933
2717.109,0.20404258
2718.175,0.20747932
2719.242,0.21194539
2720.31,0.21537029
2721.379,0.21635791
2722.448,0.2152063
2723.518,0.21320411
2724.589,0.2111221
2725.661,0.20871062
2726.734,0.20566853
2727.808,0.20263666
2728.882,0.20051474
2729.958,0.19941459
2731.034,0.19883245
2732.111,0.1985286
2733.188,0.19857101
2734.267,0.19866813
2735.347,0.19835609
2736.427,0.19793229
2737.508,0.198133
2738.59,0.19903097
2739.673,0.19991973
2740.757,0.20016849
2741.841,0.19966068
2742.927,0.19862405
2744.013,0.19760286
2745.1,0.19724365
2746.188,0.19759935
2747.277,0.19807578
2748.367,0.19833782
2749.457,0.19869431
2750.549,0.19931226
2751.641,0.19993347
2752.734,0.20053479
2753.828,0.2013331
2754.923,0.20200416
2756.019,0.2019771
2757.115,0.20174163
2758.213,0.2020948
2759.311,0.20276267
2760.41,0.20315855
2761.51,0.20336314
2762.611,0.203666
2763.713,0.20386347
2764.816,0.20381576
2765.919,0.20401207
2767.024,0.20465222
2768.129,0.2052145
2769.235,0.20538001
2770.342,0.20554215
2771.45,0.2059339
2772.559,0.20626391
2773.669,0.20649854
2774.779,0.20695395
2775.891,0.20754272
2777.003,0.20785292
2778.116,0.20788285
2779.23,0.20796991
2780.345,0.20809517
2781.461,0.20803286
2782.578,0.20797502
2783.696,0.20821691
2784.814,0.20851851
2785.934,0.20845395
2787.054,0.20815731
2788.175,0.20815075
2789.297,0.20850921
2790.42,0.20885074
2791.544,0.20898553
2792.669,0.20894563
2793.795,0.20871659
2794.922,0.20834163
2796.049,0.20808313
2797.178,0.20812536
2798.307,0.20827012
2799.437,0.20819337
2800.568,0.20783719
2801.7,0.20733144
2802.833,0.20676516
2803.967,0.20630557
2805.102,0.20628682
2806.238,0.20676652
2807.374,0.2073336
2808.512,0.20763124
2809.65,0.20773879
2810.789,0.20787212
2811.93,0.208
2813.071,0.20801066
2814.213,0.20799871
2815.356,0.20808983
2816.5,0.20819334
2817.645,0.2081776
2818.791,0.20808922
2819.937,0.20801859
2821.085,0.20798097
2822.233,0.20803947
2823.383,0.20830092
2824.533,0.20871275
2825.685,0.20906916
2826.837,0.2092199
2827.99,0.20917048
2829.144,0.20901515
2830.299,0.20885866
2831.455,0.20876587
2832.612,0.20873893
2833.77,0.20874412
2834.929,0.20874394
2836.089,0.2086937
2837.25,0.20860141
2838.411,0.20858234
2839.574,0.20871765
2840.737,0.20890721
2841.902,0.2090403
2843.067,0.20918009
2844.234,0.20938435
2845.401,0.20952865
2846.569,0.20953047
2847.739,0.20953373
2848.909,0.2096466
2850.08,0.20975441
2851.252,0.20979242
2852.425,0.20988619
2853.599,0.21004924
2854.774,0.21011755
2855.95,0.21011055
2857.127,0.21025667
2858.305,0.21057415
2859.484,0.21086469
2860.664,0.21110138
2861.844,0.2113948
2863.026,0.21163616
2864.209,0.21161088
2865.392,0.21138933
2866.577,0.21121079
2867.763,0.21109774
2868.949,0.21093699
2870.137,0.21078996
2871.325,0.21078311
2872.515,0.21084192
2873.705,0.21082076
2874.897,0.2107595
2876.089,0.21075533
2877.283,0.21076318
2878.477,0.21074107
2879.673,0.21081989
2880.869,0.21110022
2882.066,0.21142944
2883.265,0.2115828
2884.464,0.21157678
2885.664,0.21160471
2886.866,0.21175356
2888.068,0.21196142
2889.271,0.21216565
2890.476,0.21229028
2891.681,0.2121838
2892.887,0.21179012
2894.095,0.21131344
2895.303,0.21098569
2896.512,0.21076758
2897.723,0.21049102
2898.934,0.21018122
2900.146,0.20998521
2901.36,0.20990463
2902.574,0.20985092
2903.789,0.20986881
2905.006,0.21003896
2906.223,0.21028935
2907.441,0.21051149
2908.661,0.21071885
2909.881,0.21090637
2911.103,0.21095086
2912.325,0.21084469
2913.549,0.21083943
2914.773,0.21113503
2915.999,0.2115851
2917.225,0.2118637
2918.453,0.21179966
2919.681,0.21142655
2920.911,0.21088
2922.142,0.21036333
2923.373,0.21005681
2924.606,0.20994425
2925.84,0.2098523
2927.075,0.20969959
2928.31,0.20957523
2929.547,0.20954328
2930.785,0.20955127
2932.024,0.20957568
2933.264,0.20969814
2934.505,0.20995441
2935.747,0.21024311
2936.99,0.21045398
2938.234,0.21057667
2939.479,0.21060964
2940.726,0.21050691
2941.973,0.21030935
2943.221,0.21022811
2944.471,0.21048827
2945.721,0.21108978
2946.973,0.2117547
2948.225,0.21211361
2949.479,0.21200945
2950.733,0.21167108
2951.989,0.2115246
2953.246,0.21177081
2954.504,0.21219511
2955.763,0.21241685
2957.023,0.21225624
2958.284,0.21183232
2959.546,0.21141778
2960.809,0.21124225
2962.073,0.21135536
2963.339,0.21163451
2964.605,0.21192663
2965.873,0.21213341
2967.141,0.21218546
2968.411,0.21207417
2969.681,0.21195155
2970.953,0.21205796
2972.226,0.21250523
2973.5,0.2132082
2974.775,0.21399081
2976.051,0.21463385
2977.328,0.21490356
2978.607,0.21474391
2979.886,0.21440629
2981.167,0.21420751
2982.448,0.21421842
2983.731,0.21431521
2985.015,0.21442329
2986.3,0.21455938
2987.586,0.21476351
2988.873,0.21512076
2990.161,0.21569745
2991.45,0.21633525
2992.74,0.21669394
2994.032,0.21663488
2995.324,0.21640745
2996.618,0.21634486
2997.913,0.21655179
2999.209,0.21698515
3000.506,0.21760451
3001.804,0.2182786
3003.103,0.21875039
3004.404,0.21889073
3005.705,0.21885208
3007.008,0.2188303
3008.312,0.21884924
3009.616,0.2189115
3010.922,0.2191389
3012.23,0.21958578
3013.538,0.22009717
3014.847,0.22051457
3016.158,0.2208415
3017.469,0.22109608
3018.782,0.22123016
3020.096,0.22129933
3021.411,0.2214577
3022.727,0.22168984
3024.044,0.22183897
3025.363,0.22196818
3026.683,0.22238499
3028.003,0.223235
3029.325,0.22434947
3030.648,0.22548602
3031.972,0.2264193
3033.298,0.22685465
3034.624,0.22662957
3035.952,0.22601965
3037.281,0.22553638
3038.611,0.22543321
3039.942,0.22564039
3041.274,0.22606513
3042.607,0.22665149
3043.942,0.22722599
3045.278,0.22757721
3046.615,0.22767469
3047.953,0.22764026
3049.292,0.22757257
3050.632,0.22753512
3051.974,0.22762242
3053.317,0.22788291
3054.661,0.22823266
3056.006,0.22856411
3057.352,0.22889405
3058.7,0.22930168
3060.048,0.22978869
3061.398,0.23030789
3062.749,0.23086856
3064.101,0.2314599
3065.455,0.23190011
3066.809,0.23197281
3068.165,0.23174633
3069.522,0.23155271
3070.88,0.23159686
3072.239,0.23179935
3073.6,0.23206603
3074.962,0.23244708
3076.325,0.23294343
3077.689,0.23342575
3079.054,0.23383463
3080.421,0.23422279
3081.788,0.23457207
3083.157,0.2348378
3084.527,0.2351409
3085.899,0.23561123
3087.271,0.23608989
3088.645,0.23630408
3090.02,0.23627454
3091.396,0.23624693
3092.774,0.23632271
3094.153,0.23647199
3095.532,0.23678341
3096.914,0.237365
3098.296,0.23809312
3099.679,0.23872088
3101.064,0.23912381
3102.45,0.23926121
3103.837,0.23910298
3105.226,0.23878612
3106.616,0.2386229
3108.007,0.23875648
3109.399,0.2390125
3110.792,0.2392208
3112.187,0.23944558
3113.583,0.23977224
3114.98,0.24012378
3116.378,0.24043488
3117.778,0.24078725
3119.179,0.2412355
3120.581,0.24167926
3121.985,0.24202915
3123.389,0.24233906
3124.795,0.24268217
3126.202,0.24303318
3127.611,0.24335172
3129.02,0.24365982
3130.431,0.24397145
3131.844,0.24426027
3133.257,0.24454778
3134.672,0.24492208
3136.088,0.24540637
3137.505,0.24590963
3138.924,0.24636228
3140.344,0.24680597
3141.765,0.24728729
3143.187,0.24775733
3144.611,0.24815875
3146.036,0.24852958
3147.462,0.24892686
3148.89,0.2493219
3150.319,0.24967971
3151.749,0.2500574
3153.18,0.25050595
3154.613,0.25095217
3156.047,0.25130501
3157.482,0.25158974
3158.919,0.25186909
3160.357,0.25214416
3161.796,0.25245092
3163.236,0.25291421
3164.678,0.25356556
3166.121,0.25424285
3167.566,0.25480297
3169.011,0.25528785
3170.458,0.2557725
3171.907,0.25623198
3173.356,0.2566796
3174.807,0.25724978
3176.26,0.25803167
3177.713,0.25895941
3179.168,0.25990796
3180.624,0.2607229
3182.082,0.26118312
3183.541,0.26118117
3185.001,0.26094557
3186.463,0.26086491
3187.926,0.26110653
3189.39,0.26160258
3190.856,0.26230314
3192.323,0.26317512
3193.791,0.26402519
3195.26,0.26459548
3196.731,0.26482914
3198.204,0.26488544
3199.677,0.26495697
3201.152,0.26518803
3202.629,0.26563383
3204.106,0.26616525
3205.585,0.26654416
3207.066,0.26672829
3208.548,0.26699466
3210.031,0.26766366
3211.515,0.26880424
3213.001,0.27024683
3214.488,0.27171376
3215.977,0.27286187
3217.467,0.27338908
3218.958,0.27326769
3220.451,0.27281865
3221.945,0.27247524
3223.441,0.27249976
3224.938,0.27288134
3226.436,0.27337508
3227.936,0.27366411
3229.437,0.27365866
3230.939,0.27363699
3232.443,0.27395442
3233.948,0.27462792
3235.455,0.27535774
3236.963,0.27590104
3238.472,0.27626538
3239.983,0.27659578
3241.495,0.27704683
3243.008,0.27770473
3244.523,0.27848949
3246.04,0.27920185
3247.558,0.27978336
3249.077,0.28040237
3250.598,0.28119432
3252.12,0.28208656
3253.643,0.2829734
3255.168,0.2838303
3256.694,0.2845499
3258.222,0.28490152
3259.751,0.28479039
3261.282,0.28439125
3262.814,0.28397753
3264.347,0.28378466
3265.882,0.28400011
3267.418,0.28463784
3268.956,0.28542177
3270.495,0.28599761
3272.036,0.28626118
3273.578,0.28635578
3275.122,0.28645247
3276.667,0.28667871
3278.213,0.28714046
3279.761,0.28783283
3281.31,0.28860995
3282.861,0.28934332
3284.413,0.2900138
3285.967,0.29059702
3287.522,0.29101781
3289.079,0.29130149
3290.637,0.29164756
3292.196,0.29225983
3293.757,0.29314434
3295.32,0.29408453
3296.884,0.2947797
3298.449,0.29505145
3300.016,0.29500617
3301.585,0.29497671
3303.155,0.29523396
3304.726,0.29574679
3306.299,0.29624227
3307.873,0.29648948
3309.449,0.2965235
3311.026,0.29659118
3312.605,0.29688355
3314.185,0.29735864
3315.767,0.29784206
3317.351,0.29823672
3318.936,0.29858576
3320.522,0.29900882
3322.11,0.29965313
3323.699,0.30061338
3325.29,0.30180035
3326.882,0.3029394
3328.476,0.30374924
3330.072,0.30407122
3331.669,0.303883
3333.267,0.30334741
3334.867,0.30282741
3336.469,0.30264528
3338.072,0.30281059
3339.676,0.30313648
3341.282,0.30355488
3342.89,0.30409862
3344.499,0.30467464
3346.11,0.3051373
3347.722,0.30552848
3349.336,0.30597076
3350.952,0.3063945
3352.569,0.30661656
3354.187,0.30662445
3355.807,0.30656449
3357.429,0.30656438
3359.052,0.30674598
3360.677,0.30724144
3362.303,0.30799274
3363.931,0.30870335
3365.56,0.30914963
3367.191,0.30937203
3368.824,0.30946157
3370.458,0.30940505
3372.093,0.30923394
3373.731,0.30907921
3375.37,0.30899055
3377.01,0.30892744
3378.652,0.30895492
3380.296,0.30920855
3381.941,0.30967422
3383.588,0.31022938
3385.236,0.31084664
3386.886,0.3115351
3388.538,0.31216839
3390.191,0.31261668
3391.846,0.31297293
3393.502,0.31343421
3395.16,0.31403115
3396.82,0.31463695
3398.481,0.31516608
3400.144,0.31563519
3401.809,0.31609447
3403.475,0.31658389
3405.143,0.31706924
3406.812,0.31739067
3408.483,0.31737386
3410.156,0.31705712
3411.83,0.31669999
3413.506,0.31654259
3415.183,0.31663644
3416.862,0.31694374
3418.543,0.31747763
3420.226,0.31826709
3421.91,0.31922371
3423.596,0.32013931
3425.283,0.32084558
3426.972,0.32135894
3428.663,0.32185329
3430.355,0.32249797
3432.049,0.32332603
3433.745,0.3242707
3435.442,0.32529816
3437.141,0.32646155
3438.842,0.32779361
3440.545,0.32915974
3442.249,0.33025792
3443.954,0.33080825
3445.662,0.33077109
3447.371,0.33040929
3449.082,0.33011758
3450.794,0.33015057
3452.509,0.33048659
3454.224,0.33094783
3455.942,0.3314034
3457.661,0.3318483
3459.382,0.33234958
3461.105,0.33296358
3462.829,0.33365537
3464.556,0.33427042
3466.283,0.33466067
3468.013,0.33485163
3469.744,0.335002
3471.477,0.33520578
3473.212,0.33544258
3474.948,0.33569911
3476.686,0.33599577
3478.426,0.3363065
3480.168,0.33659349
3481.911,0.33690396
3483.656,0.33733889
3485.403,0.33798177
3487.152,0.33889599
3488.902,0.34003524
3490.654,0.34110026
3492.408,0.34169524
3494.164,0.34173271
3495.921,0.34151831
3497.68,0.34138333
3499.441,0.34143247
3501.204,0.34166156
3502.968,0.34208353
3504.734,0.34267411
3506.502,0.34336265
3508.272,0.34410105
3510.043,0.34483625
3511.817,0.34548517
3513.592,0.34605063
3515.368,0.34666269
3517.147,0.34741018
3518.927,0.34824203
3520.71,0.34906457
3522.494,0.34979871
3524.28,0.35035812
3526.067,0.35076027
3527.857,0.35125027
3529.648,0.35210781
3531.441,0.3533109
3533.236,0.35452039
3535.032,0.35538209
3536.831,0.35576148
3538.631,0.35577924
3540.433,0.35571954
3542.237,0.35582194
3544.043,0.35609939
3545.851,0.3564246
3547.66,0.35675461
3549.471,0.35714415
3551.284,0.35758238
3553.099,0.35799426
3554.916,0.35837443
3556.735,0.35877825
3558.555,0.35920404
3560.378,0.35961448
3562.202,0.3600205
3564.028,0.36044887
3565.856,0.3608872
3567.686,0.36133442
3569.518,0.36179856
3571.351,0.36220332
3573.187,0.36243211
3575.024,0.36252105
3576.863,0.36267716
3578.704,0.36305854
3580.547,0.36365532
3582.392,0.36437786
3584.239,0.36509895
3586.088,0.36563638
3587.938,0.36588217
3589.791,0.36597437
3591.645,0.36619083
3593.501,0.36666275
3595.359,0.36728899
3597.22,0.36788087
3599.082,0.3682821
3600.946,0.36843293
3602.811,0.36844037
3604.679,0.36852484
3606.549,0.3688124
3608.421,0.36925241
3610.294,0.36977265
3612.17,0.37037741
3614.047,0.37104221
3615.926,0.37165497
3617.808,0.37212902
3619.691,0.37248745
3621.576,0.37280123
3623.463,0.37312398
3625.353,0.37348458
3627.244,0.3738904
3629.137,0.37433523
3631.032,0.37482329
3632.929,0.37535126
3634.828,0.37588387
3636.729,0.37638051
3638.632,0.37682014
3640.537,0.37718089
3642.444,0.37747374
3644.353,0.37781495
3646.263,0.37834769
3648.176,0.37905433
3650.091,0.37975261
3652.008,0.38026901
3653.927,0.38053402
3655.848,0.38058151
3657.771,0.38058034
3659.696,0.38077111
3661.623,0.38123737
3663.552,0.38182974
3665.483,0.38238232
3667.416,0.38286226
3669.351,0.38327085
3671.288,0.38359914
3673.227,0.3839367
3675.168,0.38442632
3677.111,0.38507368
3679.057,0.38575649
3681.004,0.38639772
3682.953,0.38695961
3684.905,0.38735191
3686.858,0.38753088
3688.814,0.38762447
3690.771,0.38778772
3692.731,0.38802404
3694.693,0.38827268
3696.656,0.3885658
3698.622,0.38896205
3700.59,0.38942202
3702.56,0.38985553
3704.532,0.39023819
3706.507,0.39059117
3708.483,0.3909144
3710.461,0.39121411
3712.442,0.39154911
3714.425,0.39196727
3716.409,0.39242552
3718.396,0.39283989
3720.385,0.39319996
3722.376,0.39355049
3724.37,0.39390248
3726.365,0.39425974
3728.362,0.39469462
3730.362,0.3952538
3732.364,0.39584777
3734.368,0.39636973
3736.374,0.39687095
3738.382,0.39746556
3740.392,0.39815284
3742.405,0.39885179
3744.419,0.39950983
3746.436,0.40006121
3748.455,0.40044569
3750.476,0.40074085
3752.499,0.40109646
3754.525,0.40149105
3756.553,0.40178673
3758.582,0.40199422
3760.614,0.40225136
3762.649,0.40257946
3764.685,0.4029019
3766.724,0.40321612
3768.764,0.4035439
3770.807,0.40383747
3772.853,0.40409888
3774.9,0.40441297
3776.95,0.40477134
3779.001,0.40507255
3781.056,0.40533588
3783.112,0.40566461
3785.17,0.40604005
3787.231,0.40638635
3789.294,0.4067433
3791.359,0.40715554
3793.427,0.40755008
3795.496,0.40790382
3797.568,0.40831639
3799.643,0.40877826
3801.719,0.4091428
3803.798,0.40939718
3805.879,0.40968052
3807.962,0.41000864
3810.048,0.41029385
3812.135,0.41058509
3814.225,0.41099437
3816.318,0.4114802
3818.412,0.41195271
3820.509,0.41243464
3822.609,0.41291506
3824.71,0.41326905
3826.814,0.4135023
3828.92,0.4138232
3831.029,0.41431998
3833.139,0.41482803
3835.252,0.41521831
3837.368,0.41555873
3839.486,0.41594199
3841.606,0.41638667
3843.728,0.41692514
3845.853,0.4175808
3847.98,0.41826585
3850.109,0.41887155
3852.241,0.41942001
3854.375,0.41999557
3856.512,0.42059117
3858.65,0.42113397
3860.792,0.4216015
3862.935,0.42201289
3865.081,0.42236306
3867.229,0.42264804
3869.38,0.42292579
3871.533,0.42327742
3873.689,0.42371562
3875.846,0.4241679
3878.007,0.42456427
3880.169,0.42491165
3882.334,0.42526583
3884.502,0.42565743
3886.672,0.42609363
3888.844,0.42658107
3891.019,0.42709516
3893.196,0.42755928
3895.375,0.42792583
3897.557,0.42824058
3899.742,0.42857128
3901.929,0.42891007
3904.118,0.42923871
3906.31,0.42962478
3908.504,0.43014354
3910.7,0.43074909
3912.9,0.43132445
3915.101,0.43181387
3917.305,0.43221442
3919.512,0.43251158
3921.721,0.43273884
3923.932,0.43301306
3926.146,0.43338488
3928.363,0.43375459
3930.581,0.43406169
3932.803,0.43441105
3935.027,0.43487177
3937.253,0.43532245
3939.482,0.43565941
3941.714,0.43596398
3943.948,0.43632068
3946.184,0.43667682
3948.423,0.43700606
3950.665,0.43737969
3952.909,0.43778747
3955.156,0.43813572
3957.405,0.43848696
3959.657,0.43901603
3961.911,0.43970526
3964.168,0.44036744
3966.427,0.44095679
3968.689,0.44157624
3970.954,0.44223456
3973.221,0.44286818
3975.491,0.44351983
3977.763,0.44423869
3980.038,0.44492612
3982.315,0.44548233
3984.595,0.44597749
3986.878,0.44650498
3989.163,0.44703198
3991.451,0.44750484
3993.742,0.44795609
3996.035,0.4484215
3998.33,0.44889618
4000.629,0.44940793
4002.93,0.44999814
4005.233,0.45063206
4007.54,0.45122468
4009.849,0.45173044
4012.16,0.45215367
4014.475,0.45253307
4016.791,0.45294303
4019.111,0.45343994
4021.433,0.45400914
4023.758,0.45459529
4026.086,0.455157
4028.416,0.4556726
4030.749,0.45615807
4033.085,0.45668171
4035.423,0.45727746
4037.764,0.45786437
4040.108,0.45835023
4042.454,0.45877551
4044.804,0.45924646
4047.155,0.45977307
4049.51,0.46028805
4051.867,0.46076132
4054.228,0.46121742
4056.59,0.4616823
4058.956,0.46218767
4061.324,0.46276643
4063.695,0.46338813
4066.069,0.46396224
4068.446,0.46446569
4070.825,0.46499575
4073.207,0.46562988
4075.592,0.46629347
4077.98,0.46687422
4080.371,0.46739964
4082.764,0.46797457
4085.16,0.46859312
4087.559,0.46917772
4089.961,0.46976093
4092.365,0.47042872
4094.773,0.47113984
4097.183,0.4718
4099.596,0.47243765
4102.012,0.47309357
4104.43,0.47368104
4106.852,0.47416916
4109.276,0.47470754
4111.703,0.47536443
4114.133,0.47600269
4116.566,0.47658869
4119.002,0.47729969
4121.441,0.47815573
4123.882,0.47893191
4126.327,0.47955132
4128.774,0.48016215
4131.224,0.4807912
4133.677,0.48134808
4136.133,0.48193856
4138.592,0.48273778
4141.054,0.48364433
4143.519,0.48444449
4145.987,0.48515081
4148.457,0.48585154
4150.931,0.4865019
4153.407,0.4871127
4155.887,0.48783195
4158.369,0.48865932
4160.854,0.48941922
4163.343,0.49008181
4165.834,0.49075753
4168.328,0.49143265
4170.826,0.49205626
4173.326,0.49274241
4175.829,0.49357086
4178.335,0.49442325
4180.844,0.4952465
4183.356,0.49616638
4185.872,0.49720873
4188.39,0.49827452
4190.911,0.49944033
4193.435,0.50090998
4195.963,0.50276632
4198.493,0.50511227
4201.026,0.50823359
4203.563,0.51225264
4206.102,0.51691907
4208.645,0.52207022
4211.19,0.52783454
4213.739,0.53405997
4216.291,0.54013679
4218.846,0.54575196
4221.404,0.55111195
4223.965,0.55620756
4226.529,0.56075387
4229.096,0.56488288
4231.666,0.56876597
4234.24,0.57181985
4236.816,0.57344264
4239.396,0.57403504
4241.979,0.57404539
4244.565,0.57282741
4247.154,0.56943805
4249.746,0.56394031
4252.341,0.55748752
4254.94,0.55193348
4257.542,0.54931571
4260.146,0.5508807
4262.754,0.55616503
4265.366,0.56302679
4267.98,0.56895608
4270.598,0.5726427
4273.219,0.57422118
4275.843,0.57454266
4278.47,0.57461287
4281.1,0.57506067
4283.734,0.57584357
4286.371,0.57667163
4289.011,0.57745425
4291.655,0.57803552
4294.301,0.57809776
4296.951,0.57770342
4299.604,0.57741443
4302.261,0.57751692
4304.92,0.57760719
4307.583,0.57714944
4310.25,0.57604062
4312.919,0.57447349
4315.592,0.57271754
4318.268,0.57114316
4320.948,0.57005516
4323.631,0.56939345
4326.317,0.56886605
4329.006,0.5683378
4331.699,0.56781915
4334.395,0.56721913
4337.095,0.56645941
4339.797,0.56573925
4342.504,0.56535817
4345.213,0.56537311
4347.926,0.56568879
4350.642,0.56625323
4353.362,0.56691878
4356.085,0.56740238
4358.811,0.56766595
4361.541,0.56800852
4364.275,0.56860379
4367.011,0.56932893
4369.751,0.57014838
4372.495,0.57115559
4375.242,0.57221996
4377.992,0.57315549
4380.746,0.57417564
4383.504,0.57558203
4386.264,0.57718059
4389.029,0.57861849
4391.796,0.57998083
4394.567,0.58141957
4397.342,0.58267115
4400.12,0.58361951
4402.902,0.58471613
4405.687,0.58621959
4408.476,0.58772197
4411.268,0.58897294
4414.064,0.5902979
4416.863,0.59179493
4419.666,0.59308009
4422.472,0.59412765
4425.282,0.59533301
4428.096,0.59663606
4430.913,0.59765145
4433.734,0.59858222
4436.558,0.5998776
4439.386,0.60125085
4442.217,0.60213918
4445.052,0.60276412
4447.891,0.60366646
4450.733,0.60475242
4453.579,0.60572282
4456.428,0.60678575
4459.281,0.6080818
4462.138,0.60915625
4464.998,0.60974925
4467.863,0.61035045
4470.73,0.61135756
4473.602,0.6124816
4476.477,0.61341009
4479.355,0.61430297
4482.238,0.61527463
4485.124,0.61611131
4488.014,0.61672473
4490.908,0.61732159
4493.805,0.61799944
4496.706,0.61864805
4499.611,0.61930073
4502.519,0.62014773
4505.431,0.62115538
4508.347,0.62199498
4511.267,0.62248442
4514.191,0.62285264
4517.118,0.62342059
4520.049,0.62417209
4522.984,0.62490226
4525.923,0.62563633
4528.865,0.62651661
4531.812,0.62738085
4534.762,0.62795954
4537.716,0.6284165
4540.674,0.62909181
4543.635,0.62987213
4546.601,0.63044977
4549.57,0.63102209
4552.543,0.63196083
4555.521,0.63308406
4558.502,0.63401116
4561.487,0.63488839
4564.475,0.6359101
4567.468,0.6366507
4570.465,0.6367692
4573.465,0.63686005
4576.47,0.63754233
4579.478,0.63846293
4582.491,0.63917178
4585.507,0.63996605
4588.527,0.6410108
4591.551,0.64177721
4594.58,0.64213422
4597.612,0.64282948
4600.648,0.64417489
4603.688,0.64545547
4606.732,0.64618655
4609.781,0.64673758
4612.833,0.64727134
4615.889,0.64744431
4618.949,0.64745591
4622.014,0.6480286
4625.082,0.64902607
4628.155,0.64958455
4631.231,0.64970983
4634.312,0.65026343
4637.397,0.65126517
4640.485,0.6519621
4643.578,0.65238901
4646.675,0.65314529
4649.777,0.65405385
4652.882,0.65448557
4655.991,0.65474083
4659.105,0.65558971
4662.223,0.65681001
4665.345,0.65775203
4668.471,0.65871942
4671.601,0.66023196
4674.735,0.66181674
4677.874,0.66287373
4681.017,0.66372797
4684.164,0.66459376
4687.315,0.66487275
4690.471,0.66455905
4693.63,0.66483191
4696.794,0.66625565
4699.962,0.66795713
4703.135,0.66926279
4706.312,0.67055345
4709.493,0.67196587
4712.678,0.67296005
4715.868,0.67354903
4719.062,0.67438761
4722.26,0.67550389
4725.463,0.67637747
4728.669,0.67709526
4731.881,0.67809012
4735.096,0.67914416
4738.316,0.67980704
4741.541,0.68030876
4744.769,0.68108822
4748.002,0.68205063
4751.24,0.68295482
4754.482,0.68389626
4757.728,0.68491539
4760.979,0.68579557
4764.234,0.68652185
4767.494,0.68736161
4770.758,0.68836519
4774.026,0.68932544
4777.299,0.69016322
4780.577,0.69096479
4783.859,0.6917698
4787.145,0.6925916
4790.436,0.69342573
4793.732,0.69417765
4797.032,0.69477752
4800.336,0.6953356
4803.645,0.69598019
4806.959,0.69671773
4810.277,0.69762489
4813.6,0.69884407
4816.927,0.70018514
4820.259,0.70115954
4823.596,0.70157318
4826.937,0.70168941
4830.283,0.70178553
4833.633,0.70204632
4836.988,0.70272372
4840.348,0.70383586
4843.712,0.70494101
4847.081,0.705756
4850.455,0.70661851
4853.833,0.70784327
4857.216,0.709103
4860.604,0.70997429
4863.996,0.71061123
4867.393,0.7113176
4870.795,0.71193443
4874.202,0.71222893
4877.613,0.71247581
4881.03,0.71307094
4884.451,0.71397794
4887.876,0.71504626
4891.307,0.71633729
4894.742,0.71773701
4898.182,0.71879697
4901.627,0.71942537
4905.077,0.72016512
4908.532,0.72119608
4911.991,0.72188753
4915.456,0.7219522
4918.925,0.72207158
4922.399,0.72278833
4925.878,0.72383628
4929.362,0.72495275
4932.851,0.72619885
4936.345,0.72724924
4939.844,0.72763857
4943.347,0.72785958
4946.856,0.72886456
4950.37,0.73051382
4953.888,0.73180974
4957.412,0.73244457
4960.941,0.73287115
4964.474,0.73325311
4968.013,0.73356878
4971.556,0.73422022
4975.105,0.73541398
4978.659,0.73645298
4982.218,0.73673574
4985.782,0.7368166
4989.351,0.7373973
4992.925,0.73822078
4996.504,0.73888936
5000.088,0.7396865
5003.678,0.74080758
5007.272,0.74192359
5010.872,0.74302684
5014.477,0.74452771
5018.087,0.74615188
5021.703,0.74701003
5025.323,0.74698194
5028.949,0.74683944
5032.58,0.74696856
5036.216,0.74714968
5039.857,0.74741458
5043.504,0.74802401
5047.156,0.74878947
5050.813,0.74934116
5054.475,0.74979346
5058.143,0.75042051
5061.816,0.75105701
5065.495,0.75149903
5069.179,0.75205572
5072.868,0.75311464
5076.562,0.75451565
5080.262,0.75577226
5083.967,0.75660261
5087.678,0.75697993
5091.394,0.75701314
5095.115,0.75700301
5098.842,0.75731619
5102.574,0.75804064
5106.312,0.75892419
5110.055,0.75969337
5113.804,0.76030138
5117.558,0.76085698
5121.318,0.76145011
5125.083,0.76209835
5128.854,0.76288276
5132.63,0.76406071
5136.412,0.76585447
5140.199,0.76806561
5143.992,0.77007936
5147.791,0.77131927
5151.595,0.77160736
5155.405,0.77120509
5159.22,0.7707421
5163.041,0.7709191
5166.868,0.77190579
5170.7,0.77318837
5174.538,0.77428439
5178.382,0.77529821
5182.231,0.77651228
5186.086,0.77796784
5189.947,0.77974168
5193.814,0.78200225
5197.686,0.7844744
5201.564,0.7865837
5205.448,0.78827735
5209.338,0.78981649
5213.233,0.79077485
5217.134,0.79050183
5221.041,0.78957602
5224.954,0.78941506
5228.873,0.79047633
5232.798,0.79203369
5236.728,0.79346429
5240.665,0.79464373
5244.607,0.79539191
5248.555,0.79567821
5252.51,0.79605241
5256.47,0.79692651
5260.436,0.79799085
5264.408,0.79901459
5268.386,0.80035656
5272.37,0.80205559
5276.36,0.80353703
5280.356,0.80474595
5284.358,0.80631837
5288.367,0.80816049
5292.381,0.80923332
5296.401,0.80919182
5300.428,0.80888544
5304.46,0.80893775
5308.499,0.80921276
5312.544,0.80970488
5316.595,0.81064716
5320.652,0.81172606
5324.715,0.81237075
5328.785,0.81280656
5332.86,0.81389163
5336.942,0.81609411
5341.031,0.81924741
5345.125,0.82275122
5349.226,0.825367
5353.333,0.82571223
5357.446,0.82388213
5361.566,0.82169731
5365.692,0.82070311
5369.824,0.82085472
5373.962,0.82135888
5378.107,0.8218793
5382.259,0.82241733
5386.417,0.82284461
5390.581,0.82316904
5394.751,0.82373709
5398.928,0.824763
5403.112,0.82624691
5407.302,0.82851204
5411.498,0.83197335
5415.701,0.83595192
5419.911,0.83855823
5424.127,0.83854661
5428.349,0.83671834
5432.579,0.83476021
5436.814,0.8336903
5441.057,0.83389692
5445.305,0.83552343
5449.561,0.83835855
5453.823,0.84210891
5458.092,0.84680969
5462.368,0.85211972
5466.65,0.85661652
5470.939,0.85927106
5475.234,0.86099956
5479.537,0.86298259
5483.846,0.86469684
5488.162,0.86549626
5492.484,0.86648475
5496.814,0.86889943
5501.15,0.87281437
5505.493,0.87887875
5509.843,0.88853839
5514.2,0.90129822
5518.564,0.91460084
5522.934,0.92697701
5527.312,0.93857628
5531.696,0.94953311
5536.087,0.96110044
5540.486,0.97388535
5544.891,0.97782007
5549.303,0.95088826
5553.723,0.88141838
5558.149,0.79719465
5562.582,0.69003696
5567.023,0.6069442
5571.47,0.56927831
5575.925,0.55593386
5580.387,0.57723841
5584.856,0.6151042
5589.332,0.64643457
5593.815,0.667956
5598.305,0.68609513
5602.803,0.70092807
5607.307,0.70934182
5611.819,0.7161136
5616.339,0.72586879
5620.865,0.73527832
5625.399,0.74064452
5629.94,0.74560709
5634.489,0.75275126
5639.044,0.75822736
5643.607,0.75976485
5648.178,0.76202388
5652.756,0.76654766
5657.341,0.76921378
5661.934,0.76950934
5666.534,0.77209075
5671.142,0.77742621
5675.757,0.78093277
5680.379,0.78198347
5685.01,0.78440127
5689.647,0.78787703
5694.293,0.78908676
5698.945,0.78967423
5703.606,0.79355177
5708.274,0.79891049
5712.949,0.80105434
5717.633,0.80136687
5722.324,0.80369324
5727.022,0.80654292
5731.729,0.80703245
5736.443,0.80768167
5741.165,0.81116361
5745.894,0.81467149
5750.631,0.81575692
5755.377,0.81792444
5760.13,0.82320968
5764.89,0.82695907
5769.659,0.82625253
5774.436,0.82563026
5779.22,0.82710355
5784.012,0.82700139
5788.813,0.82497787
5793.621,0.8255916
5798.437,0.82939243
5803.262,0.83217929
5808.094,0.83389268
5812.934,0.83832248
5817.782,0.8439612
5822.639,0.8452936
5827.503,0.84381939
5832.376,0.8444226
5837.257,0.84563937
5842.146,0.84457347
5847.043,0.84464743
5851.948,0.84892024
5856.862,0.85355377
5861.783,0.85479213
5866.714,0.85634984
5871.652,0.86075522
5876.598,0.86371142
5881.553,0.86277359
5886.517,0.86264655
5891.488,0.86425151
5896.468,0.86294557
5901.457,0.85941034
5906.454,0.85912409
5911.459,0.86171474
5916.473,0.86296137
5921.495,0.86390766
5926.526,0.86827928
5931.565,0.87315549
5936.613,0.87271689
5941.67,0.86953727
5946.735,0.86877654
5951.809,0.86902187
5956.891,0.86806815
5961.982,0.86845161
5967.082,0.87125639
5972.19,0.87269562
5977.307,0.87152724
5982.433,0.87159771
5987.568,0.87332101
5992.711,0.87283216
5997.864,0.87068071
6003.025,0.87099027
6008.195,0.8729796
6013.374,0.87250177
6018.562,0.87051739
6023.759,0.87111119
6028.964,0.87417523
6034.179,0.87712849
6039.403,0.88008474
6044.636,0.88323446
6049.878,0.88383719
6055.129,0.88184339
6060.389,0.88147932
6065.658,0.88340918
6070.936,0.88381938
6076.224,0.88146031
6081.52,0.87964822
6086.826,0.87999402
6092.141,0.88126481
6097.466,0.88340169
6102.8,0.88693834
6108.143,0.88959751
6113.495,0.88885844
6118.857,0.8865947
6124.228,0.88570303
6129.609,0.88597903
6134.999,0.88655161
6140.398,0.88805634
6145.807,0.89037779
6151.226,0.89174212
6156.654,0.89179776
6162.091,0.89222284
6167.539,0.89355678
6172.996,0.89474502
6178.462,0.89549928
6183.938,0.89622726
6189.424,0.89650054
6194.92,0.89611041
6200.425,0.89623093
6205.94,0.89746682
6211.465,0.89875684
6217.0,0.89934317
6222.544,0.90005968
6228.099,0.90133506
6233.663,0.90221552
6239.237,0.90229422
6244.822,0.90254351
6250.416,0.90335988
6256.02,0.90407183
6261.635,0.904641
6267.259,0.9057856
6272.893,0.90712481
6278.538,0.90756386
6284.193,0.90737348
6289.858,0.90775238
6295.533,0.90861503
6301.218,0.90915562
6306.914,0.90974735
6312.619,0.91108444
6318.336,0.91250467
6324.062,0.91338635
6329.799,0.91452532
6335.546,0.91618838
6341.304,0.9168871
6347.072,0.91650832
6352.851,0.91727052
6358.64,0.91966364
6364.44,0.92132955
6370.25,0.92107908
6376.071,0.92047924
6381.903,0.92044302
6387.745,0.92055079
6393.598,0.92167138
6399.461,0.92492356
6405.335,0.92822356
6411.221,0.92829224
6417.116,0.92637649
6423.023,0.92539793
6428.941,0.924819
6434.869,0.92379958
6440.809,0.9238917
6446.759,0.92554564
6452.72,0.92670316
6458.693,0.92698961
6464.676,0.92860986
6470.671,0.93158538
6476.676,0.9330954
6482.693,0.93259197
6488.721,0.93224925
6494.76,0.93206073
6500.81,0.9309973
6506.872,0.93076133
6512.945,0.93247541
6519.029,0.93386737
6525.124,0.93336094
6531.231,0.93313325
6537.35,0.93455333
6543.48,0.93577329
6549.621,0.93600507
6555.774,0.93706362
6561.938,0.93895859
6568.114,0.93950631
6574.302,0.93918333
6580.501,0.94007937
6586.712,0.94119719
6592.934,0.94064649
6599.169,0.93996905
6605.415,0.94122036
6611.673,0.94326148
6617.943,0.94435567
6624.224,0.94513031
6630.518,0.94578496
6636.823,0.94468494
6643.141,0.94259971
6649.47,0.94248415
6655.812,0.94430783
6662.166,0.94549337
6668.532,0.94536422
6674.91,0.94549416
6681.3,0.94609364
6687.702,0.94631695
6694.117,0.94699132
6700.544,0.94889173
6706.983,0.95033784
6713.435,0.94983524
6719.899,0.94886472
6726.375,0.94893675
6732.864,0.94921217
6739.365,0.94911069
6745.879,0.94974695
6752.406,0.95139871
6758.945,0.95269036
6765.497,0.95323708
6772.062,0.95398129
6778.639,0.95460643
6785.229,0.95386992
6791.832,0.95257867
6798.448,0.95249457
6805.076,0.95334922
6811.718,0.95392874
6818.372,0.95444235
6825.039,0.95548342
6831.72,0.95641229
6838.413,0.95678125
6845.12,0.95738333
6851.84,0.9583466
6858.573,0.95838218
6865.319,0.95741147
6872.078,0.95702347
6878.851,0.9575338
6885.637,0.95789369
6892.437,0.95799759
6899.25,0.95847962
6906.076,0.95892259
6912.916,0.95863788
6919.769,0.95840416
6926.636,0.95910454
6933.517,0.96010437
6940.411,0.96062042
6947.319,0.96109484
6954.241,0.96178647
6961.176,0.96201783
6968.125,0.96190354
6975.089,0.96241702
6982.066,0.96339155
6989.057,0.96382333
6996.062,0.96385782
7003.081,0.9643189
7010.114,0.96494277
7017.161,0.96516367
7024.223,0.96555617
7031.298,0.9666228
7038.388,0.96752586
7045.492,0.96768323
7052.611,0.96788298
7059.743,0.96849336
7066.891,0.96880478
7074.052,0.96871025
7081.229,0.96898077
7088.419,0.96966042
7095.625,0.97006825
7102.845,0.97028816
7110.079,0.97089959
7117.329,0.97166626
7124.593,0.97206745
7131.872,0.97241888
7139.166,0.97314517
7146.475,0.97379535
7153.799,0.97386467
7161.137,0.97371886
7168.491,0.9738676
7175.86,0.97420853
7183.244,0.9745404
7190.643,0.97498077
7198.058,0.97555627
7205.487,0.97599684
7212.933,0.97619347
7220.393,0.97641824
7227.869,0.97690538
7235.36,0.97752539
7242.867,0.97803303
7250.39,0.97844311
7257.928,0.97889488
7265.481,0.97927819
7273.051,0.97943569
7280.636,0.97962122
7288.237,0.98014617
7295.854,0.98076873
7303.487,0.98110746
7311.135,0.98137162
7318.8,0.9819092
7326.481,0.98244503
7334.178,0.98261131
7341.891,0.98270612
7349.62,0.98305469
7357.366,0.98341208
7365.128,0.98366309
7372.906,0.98419238
7380.701,0.98502584
7388.512,0.98565552
7396.34,0.98601411
7404.184,0.98655248
7412.045,0.9872202
7419.922,0.98755526
7427.817,0.9876385
7435.728,0.98790633
7443.656,0.98831012
7451.601,0.98861326
7459.562,0.98898366
7467.541,0.98954815
7475.537,0.98998867
7483.55,0.99014134
7491.58,0.99028651
7499.628,0.99057474
7507.692,0.99084735
7515.774,0.99107674
7523.874,0.99137817
7531.99,0.99169733
7540.125,0.99196628
7548.277,0.9922805
7556.446,0.99263919
7564.633,0.99289289
7572.838,0.99304005
7581.061,0.99316242
7589.302,0.99319979
7597.56,0.99316628
7605.837,0.99327418
7614.131,0.99354214
7622.444,0.99372327
7630.774,0.99378282
7639.123,0.99390672
7647.491,0.99405235
7655.876,0.994106
7664.28,0.9942784
7672.702,0.99474026
7681.143,0.99520999
7689.602,0.99543194
7698.08,0.99559047
7706.577,0.99582029
7715.093,0.99594597
7723.627,0.9959938
7732.18,0.99628534
7740.752,0.99681255
7749.343,0.99722819
7757.953,0.99746623
7766.583,0.9977392
7775.231,0.9980286
7783.899,0.99820569
7792.586,0.99841932
7801.292,0.99883262
7810.018,0.99928548
7818.764,0.99962581
7827.529,0.0100000804
7836.313,0.0100055141
7845.117,0.010010937
7853.942,0.0100152286
7862.786,0.0100196617
7871.649,0.010025106
7880.533,0.010030501
7889.437,0.0100349856
7898.361,0.0100387351
7907.305,0.0100418787
7916.27,0.0100445247
7925.254,0.0100477618
7934.26,0.0100523678
7943.285,0.0100575244
7952.331,0.0100619928
7961.398,0.0100661025
7970.485,0.0100708439
7979.594,0.0100761521
7988.723,0.0100810937
7997.872,0.0100853011
8007.043,0.0100889866
8016.235,0.0100922389
8025.448,0.0100951705
8034.682,0.0100982355
8043.937,0.0101015465
8053.214,0.0101046533
8062.512,0.0101074608
8071.832,0.0101102626
8081.173,0.0101128119
8090.535,0.0101147854
8099.92,0.0101169998
8109.326,0.0101204313
8118.754,0.010124455
8128.204,0.0101280458
8137.676,0.0101315008
8147.169,0.0101351688
8156.686,0.0101382582
8166.224,0.0101407226
8175.785,0.0101440535
8185.368,0.0101485386
8194.973,0.0101525862
8204.601,0.0101557249
8214.252,0.0101591278
8223.925,0.0101626734
8233.621,0.0101651102
8243.34,0.0101670874
8253.082,0.0101703657
8262.847,0.0101745851
8272.635,0.0101781704
8282.446,0.0101813839
8292.281,0.0101852874
8302.139,0.0101894436
8312.02,0.0101931012
8321.925,0.010196966
8331.853,0.0102014446
8341.805,0.0102054074
8351.781,0.0102081962
8361.781,0.0102110131
8371.804,0.0102148317
8381.852,0.0102188351
8391.924,0.0102218632
8402.02,0.0102242469
8412.14,0.0102268055
8422.285,0.0102293773
8432.454,0.010231441
8442.648,0.0102336409
8452.866,0.010236863
8463.109,0.0102404844
8473.377,0.0102433115
8483.67,0.010245823
8493.988,0.0102489847
8504.331,0.0102518952
8514.699,0.0102534214
8525.092,0.0102547972
8535.511,0.0102572769
8545.955,0.0102595466
8556.425,0.0102605314
8566.921,0.0102620183
8577.442,0.0102649638
8587.989,0.0102673332
8598.562,0.0102681076
8609.161,0.0102692783
8619.786,0.0102715851
8630.437,0.0102733341
8641.115,0.0102744018
8651.819,0.0102765193
8662.55,0.0102793304
8673.307,0.0102813054
8684.091,0.0102832773
8694.902,0.0102866846
8705.739,0.0102904531
8716.604,0.0102932989
8727.496,0.0102960978
8738.415,0.0102993507
8749.361,0.010302015
8760.335,0.0103040451
8771.336,0.0103065734
8782.365,0.0103095397
8793.422,0.0103123987
8804.507,0.0103157442
8815.619,0.010319715
8826.76,0.0103234992
8837.928,0.0103275053
8849.125,0.0103325391
8860.351,0.0103372015
8871.604,0.0103400727
8882.887,0.0103427201
8894.198,0.0103465599
8905.538,0.0103501959
8916.907,0.0103530251
8928.305,0.0103566731
8939.732,0.0103605534
8951.188,0.0103621285
8962.673,0.0103624338
8974.189,0.0103641682
8985.733,0.0103659909
8997.308,0.0103654696
9008.912,0.0103648517
9020.546,0.0103664356
9032.21,0.0103674162
9043.905,0.0103655067
9055.629,0.0103636071
9067.384,0.0103634971
9079.17,0.0103626759
9090.986,0.010360675
9102.833,0.0103604233
9114.711,0.0103611926
9126.62,0.0103590881
9138.56,0.0103544871
9150.531,0.0103509582
9162.534,0.0103483197
9174.568,0.0103445566
9186.634,0.0103412021
9198.731,0.0103402423
9210.86,0.0103395614
9223.022,0.0103371945
9235.215,0.0103350555
9247.441,0.0103346779
9259.699,0.0103342091
9271.99,0.0103325314
9284.313,0.0103312149
9296.669,0.0103309454
9309.058,0.0103303283
9321.48,0.0103290667
9333.935,0.0103283883
9346.423,0.0103285269
9358.945,0.0103286598
9371.5,0.0103290537
9384.089,0.010330556
9396.712,0.0103328911
9409.369,0.0103349249
9422.06,0.010336339
9434.785,0.0103375251
9447.545,0.0103386919
9460.339,0.010339886
9473.167,0.010341625
9486.031,0.0103441985
9498.929,0.0103469208
9511.863,0.0103488891
9524.832,0.0103502704
9537.836,0.0103517489
9550.876,0.0103534431
9563.951,0.0103551119
9577.062,0.0103569669
9590.209,0.0103589976
9603.393,0.0103606233
9616.612,0.0103616957
9629.868,0.0103627027
9643.16,0.0103637064
9656.49,0.0103645989
9669.856,0.010365989
9683.259,0.0103682675
9696.699,0.0103702662
9710.176,0.0103709499
9723.691,0.010370983
9737.244,0.0103711604
9750.834,0.0103708443
9764.463,0.0103697173
9778.129,0.0103686245
9791.834,0.010367761
9805.577,0.0103663149
9819.359,0.0103648032
9833.18,0.0103644368
9847.039,0.0103646896
9860.938,0.0103640704
9874.875,0.0103630661
9888.853,0.0103630588
9902.869,0.0103636792
9916.926,0.0103636642
9931.022,0.0103633058
9945.159,0.0103633532
9959.336,0.0103633187
9973.553,0.0103627969
9987.811,0.0103629095
10002.109,0.0103643645
10016.449,0.0103660261
10030.83,0.0103666835
10045.252,0.0103668416
10059.715,0.0103672294
10074.221,0.0103674199
10088.768,0.0103671654
10103.357,0.0103675748
10117.988,0.0103693
10132.662,0.0103713211
10147.378,0.0103726714
10162.137,0.0103740886
10176.939,0.0103764033
10191.784,0.0103789996
10206.672,0.0103812585
10221.604,0.0103838322
10236.58,0.0103868907
10251.6,0.0103892955
10266.663,0.0103906317
10281.771,0.010392025
10296.924,0.0103937737
10312.121,0.0103948939
10327.363,0.0103953401
10342.65,0.0103962775
10357.982,0.0103977232
10373.36,0.0103987417
10388.784,0.0103994312
10404.253,0.0104004537
10419.769,0.0104012327
10435.331,0.0104009911
10450.939,0.0104000696
10466.594,0.0103989703
10482.296,0.0103977738
10498.045,0.0103970457
10513.842,0.0103972878
10529.686,0.0103979094
10545.577,0.0103983871
10561.517,0.0103993106
10577.505,0.0104007645
10593.542,0.0104019643
10609.627,0.0104031259
10625.761,0.0104047806
10641.944,0.0104054538
10658.176,0.0104038665
10674.458,0.010401671
10690.79,0.0104004815
10707.172,0.0103991693
10723.604,0.0103976559
10740.086,0.0103982892
10756.619,0.0104008308
10773.203,0.0104018719
10789.839,0.0104013775
10806.525,0.0104022375
10823.264,0.0104036875
10840.054,0.0104030078
10856.896,0.0104022227
10873.791,0.010404304
10890.738,0.0104067392
10907.738,0.0104066502
10924.791,0.0104069099
10941.898,0.0104095964
10959.058,0.0104113148
10976.272,0.0104107171
10993.541,0.0104116731
11010.863,0.010414816
11028.24,0.0104161765
11045.672,0.0104157166
11063.16,0.0104169393
11080.702,0.0104186382
11098.301,0.0104176717
11115.955,0.0104164446
11133.665,0.0104182037
11151.432,0.0104199527
11169.256,0.0104184033
11187.137,0.0104159587
11205.075,0.0104149237
11223.07,0.0104132604
11241.124,0.0104104338
11259.235,0.0104089027
11277.405,0.0104086392
11295.634,0.0104074931
11313.921,0.0104063604
11332.268,0.0104069068
11350.675,0.010407322
11369.141,0.0104055784
11387.667,0.0104031696
11406.254,0.0104014959
11424.901,0.0103995953
11443.61,0.0103972243
11462.38,0.0103955735
11481.211,0.0103943764
11500.105,0.0103925904
11519.06,0.0103906793
11538.079,0.0103891581
11557.16,0.0103870328
11576.304,0.0103841244
11595.511,0.0103817019
11614.783,0.0103800505
11634.118,0.0103783117
11653.518,0.0103769299
11672.983,0.0103770011
11692.513,0.0103780221
11712.108,0.0103784939
11731.769,0.0103782582
11751.496,0.0103778676
11771.29,0.0103772027
11791.15,0.0103758969
11811.077,0.0103747259
11831.072,0.01037472
11851.134,0.0103758665
11871.265,0.0103770226
11891.464,0.0103777606
11911.731,0.0103786856
11932.068,0.0103798513
11952.475,0.0103801837
11972.951,0.0103800044
11993.497,0.0103809375
12014.114,0.0103828987
12034.802,0.0103837801
12055.562,0.0103836089
12076.393,0.0103841611
12097.296,0.0103848121
12118.271,0.0103834399
12139.32,0.0103811614
12160.441,0.0103799791
12181.636,0.0103784949
12202.905,0.010375422
12224.249,0.0103738623
12245.667,0.0103755673
12267.16,0.0103768486
12288.729,0.0103752965
12310.373,0.0103739524
12332.094,0.0103742245
12353.892,0.0103728635
12375.767,0.0103690318
12397.719,0.0103660888
12419.75,0.0103645424
12441.859,0.010362127
12464.046,0.0103602131
12486.313,0.0103616626
12508.659,0.0103641794
12531.086,0.0103637805
12553.593,0.0103612408
12576.18,0.010359152
12598.85,0.0103569723
12621.601,0.0103540638
12644.434,0.010352426
12667.35,0.0103528629
12690.349,0.0103529055
12713.432,0.0103516262
12736.599,0.0103510432
12759.85,0.010351895
12783.187,0.0103525018
12806.608,0.0103525746
12830.116,0.0103533361
12853.71,0.0103544937
12877.391,0.0103547821
12901.159,0.0103548492
12925.016,0.0103560871
12948.96,0.0103580017
12972.993,0.0103595358
12997.116,0.0103616674
13021.329,0.0103652876
13045.631,0.010368992
13070.025,0.0103713334
13094.51,0.0103730778
13119.087,0.010374619
13143.756,0.0103748963
13168.518,0.0103745172
13193.373,0.0103759398
13218.322,0.0103783839
13243.366,0.0103786766
13268.505,0.01037753
13293.74,0.0103787338
13319.07,0.0103818354
13344.497,0.0103838807
13370.021,0.0103859909
13395.644,0.0103899822
13421.364,0.0103920036
13447.183,0.0103892992
13473.102,0.0103863933
13499.121,0.0103863006
13525.24,0.010384269
13551.461,0.0103788767
13577.783,0.0103759918
13604.208,0.010376275
13630.736,0.0103730883
13657.367,0.0103673967
13684.103,0.010366275
13710.943,0.010367169
13737.889,0.0103617677
13764.941,0.0103537284
13792.099,0.0103513366
13819.365,0.010350991
13846.739,0.0103464686
13874.221,0.0103432856
13901.813,0.0103455691
13929.515,0.0103454296
13957.327,0.0103389822
13985.25,0.0103347984
14013.285,0.0103351458
14041.433,0.0103320024
14069.694,0.0103263236
14098.068,0.01032734
14126.558,0.0103316231
14155.163,0.0103286612
14183.883,0.0103213244
14212.721,0.0103181103
14241.676,0.0103151454
14270.749,0.0103082324
14299.94,0.0103053995
14329.252,0.0103105521
14358.684,0.0103136201
14388.237,0.0103104456
14417.911,0.0103083416
14447.709,0.0103077404
14477.629,0.0103017773
14507.674,0.0102948307
14537.844,0.0102946629
14568.139,0.0102958099
14598.561,0.0102910638
14629.109,0.0102871888
14659.786,0.0102882547
14690.592,0.0102865859
14721.528,0.0102808587
14752.594,0.0102806219
14783.791,0.0102825086
14815.121,0.0102750476
14846.583,0.0102607781
14878.179,0.01024933
14909.91,0.0102355338
14941.777,0.0102175687
14973.78,0.010209015
15005.92,0.0102144302
15038.198,0.0102130997
15070.616,0.0101993519
15103.173,0.0101856178
15135.871,0.0101762731
15168.712,0.0101569775
15201.695,0.0101328616
15234.821,0.0101087098
15268.092,0.0100778987
15301.509,0.0100276528
15335.072,0.99765996
15368.783,0.99233915
15402.642,0.98602118
15436.651,0.97707875
15470.81,0.96876068
15505.12,0.95995743
15539.583,0.95147199
15574.199,0.94188168
15608.97,0.93375366
15643.896,0.92080966
15678.979,0.90552221
15714.22,0.88630295
15749.619,0.86938725
15785.178,0.84954093
15820.897,0.82890065
15856.779,0.8081931
15892.824,0.79356525
15929.033,0.77564602
15965.407,0.75399612
