Database of Origin,University of Winnipeg Spectrophotometer Facility
Sample Description,See Master Clays in HOSERLab database
Date Added,2016-12-11 20:56:55.133017

Data ID,FTIR_CLAY_03        
Sample ID,CHM102
Mineral Name,Chamosite
Grain Size,<45 m
Viewing Geometry,35/0
Resolution,11-72 nm
Material Class,Phyllosilicate

Wavelength
2001.142,0.50204987
2002.307,0.50222754
2003.474,0.50242566
2004.643,0.50268758
2005.812,0.50337064
2006.983,0.50408695
2008.155,0.50435999
2009.329,0.5046819
2010.504,0.50530521
2011.68,0.50619526
2012.858,0.50690676
2014.037,0.50721298
2015.217,0.50729025
2016.399,0.50780072
2017.582,0.50871401
2018.766,0.50913648
2019.952,0.50946046
2021.139,0.50984737
2022.328,0.51012246
2023.518,0.51060239
2024.709,0.51124889
2025.902,0.51183864
2027.096,0.51249422
2028.291,0.51321828
2029.488,0.51323943
2030.686,0.51316316
2031.886,0.5136167
2033.087,0.51404238
2034.289,0.51446659
2035.493,0.51482293
2036.698,0.51525541
2037.905,0.51590762
2039.113,0.5162695
2040.322,0.51641626
2041.533,0.51688798
2042.746,0.51751924
2043.959,0.51798434
2045.174,0.51831609
2046.391,0.51872687
2047.609,0.51938444
2048.828,0.51970947
2050.049,0.51962467
2051.271,0.5198845
2052.495,0.52026918
2053.72,0.52057472
2054.947,0.52077702
2056.175,0.52084809
2057.404,0.52146357
2058.635,0.52229943
2059.867,0.52268252
2061.101,0.52314499
2062.336,0.52368144
2063.573,0.52415277
2064.811,0.52480134
2066.051,0.52511118
2067.292,0.52496697
2068.534,0.52496726
2069.778,0.52537228
2071.024,0.52597741
2072.271,0.52631436
2073.519,0.52620407
2074.769,0.52621146
2076.02,0.52635266
2077.273,0.52622807
2078.528,0.52630372
2079.784,0.52680212
2081.041,0.52726082
2082.3,0.52787044
2083.56,0.52864078
2084.822,0.52893607
2086.085,0.52892563
2087.35,0.52921072
2088.617,0.52958688
2089.885,0.52988844
2091.154,0.53020327
2092.425,0.53042836
2093.697,0.53080117
2094.971,0.53118027
2096.247,0.53159298
2097.524,0.5321705
2098.803,0.53233468
2100.083,0.53251563
2101.364,0.53321297
2102.648,0.53377385
2103.932,0.53424832
2105.219,0.53488194
2106.506,0.53547245
2107.796,0.53592262
2109.087,0.53621585
2110.379,0.53637128
2111.673,0.5364572
2112.969,0.5366184
2114.266,0.53699073
2115.565,0.53740965
2116.865,0.53774397
2118.167,0.53826306
2119.471,0.53856284
2120.776,0.53833681
2122.082,0.53814627
2123.391,0.5383078
2124.7,0.53859749
2126.012,0.53842057
2127.325,0.53767931
2128.64,0.53694019
2129.956,0.5368946
2131.274,0.53741461
2132.593,0.53781074
2133.914,0.53817637
2135.237,0.53851433
2136.561,0.53854031
2137.887,0.53855023
2139.214,0.53877941
2140.544,0.53899229
2141.874,0.5390546
2143.207,0.53901171
2144.541,0.53898943
2145.876,0.53908229
2147.214,0.53900763
2148.553,0.53914882
2149.893,0.53976645
2151.235,0.54013123
2152.579,0.54020082
2153.925,0.54013131
2155.272,0.54015213
2156.621,0.54010415
2157.972,0.53979843
2159.324,0.53979534
2160.678,0.53978705
2162.033,0.53961993
2163.39,0.53981514
2164.749,0.54023832
2166.11,0.54058762
2167.472,0.5406798
2168.836,0.54033223
2170.202,0.54000736
2171.569,0.54016071
2172.938,0.5403349
2174.309,0.54021505
2175.682,0.5397718
2177.056,0.53935386
2178.432,0.53913128
2179.809,0.53882328
2181.189,0.53883047
2182.57,0.53879707
2183.952,0.53849405
2185.337,0.53820175
2186.723,0.53781358
2188.111,0.53761731
2189.501,0.5375323
2190.892,0.53759041
2192.285,0.53754167
2193.68,0.53694361
2195.077,0.5365146
2196.476,0.53652675
2197.876,0.53643049
2199.278,0.53636537
2200.682,0.53630653
2202.087,0.53586124
2203.494,0.53537456
2204.903,0.53467792
2206.314,0.53365154
2207.727,0.53331637
2209.141,0.5335424
2210.557,0.53336407
2211.975,0.53267727
2213.395,0.53206501
2214.817,0.5315669
2216.24,0.53066934
2217.665,0.53012494
2219.092,0.53007349
2220.521,0.52963564
2221.952,0.52887044
2223.384,0.52795198
2224.818,0.52717141
2226.254,0.52679916
2227.692,0.5265861
2229.132,0.52582136
2230.574,0.52452588
2232.017,0.52354782
2233.462,0.5227402
2234.91,0.52184895
2236.359,0.52095738
2237.809,0.51994187
2239.262,0.51853705
2240.717,0.51707825
2242.173,0.51628745
2243.631,0.51525947
2245.092,0.51357357
2246.554,0.51196865
2248.017,0.51064311
2249.483,0.50952127
2250.951,0.50835112
2252.421,0.50735172
2253.892,0.50639188
2255.365,0.5052294
2256.841,0.50442769
2258.318,0.50400215
2259.797,0.50297734
2261.278,0.50153177
2262.761,0.50069332
2264.246,0.50040625
2265.732,0.49990991
2267.221,0.49880132
2268.712,0.49784593
2270.204,0.4975383
2271.699,0.49719303
2273.195,0.49621509
2274.694,0.49487064
2276.194,0.49376753
2277.696,0.49261583
2279.201,0.49160618
2280.707,0.49135691
2282.215,0.49086847
2283.725,0.48999294
2285.237,0.48920693
2286.752,0.48834247
2288.268,0.487677
2289.786,0.48699325
2291.306,0.48631234
2292.828,0.48562421
2294.352,0.48487066
2295.878,0.48438529
2297.406,0.4838327
2298.936,0.48322416
2300.468,0.48280096
2302.002,0.48243541
2303.539,0.4819147
2305.077,0.48136388
2306.617,0.48093174
2308.159,0.48068073
2309.703,0.48056498
2311.25,0.47997288
2312.798,0.4792608
2314.348,0.47898853
2315.901,0.47874311
2317.455,0.47835506
2319.012,0.47806997
2320.571,0.47771186
2322.131,0.47706316
2323.694,0.47650717
2325.259,0.47599101
2326.826,0.47527925
2328.395,0.4745664
2329.966,0.47388826
2331.54,0.47317268
2333.115,0.472355
2334.692,0.47168422
2336.272,0.47123417
2337.854,0.47052289
2339.437,0.46962111
2341.023,0.46893369
2342.611,0.46829463
2344.201,0.46769222
2345.794,0.46715585
2347.388,0.46664742
2348.985,0.46627524
2350.583,0.46587839
2352.184,0.46567396
2353.787,0.46571132
2355.393,0.46589072
2357.0,0.466077
2358.609,0.46588111
2360.221,0.46589827
2361.835,0.46649586
2363.451,0.46712613
2365.069,0.46764112
2366.69,0.46801244
2368.312,0.4683103
2369.937,0.46845539
2371.564,0.46852042
2373.194,0.46889205
2374.825,0.46930223
2376.459,0.46954011
2378.095,0.46980217
2379.733,0.47024954
2381.373,0.47087777
2383.016,0.47141541
2384.661,0.47179416
2386.308,0.47214815
2387.957,0.47253424
2389.609,0.47306233
2391.263,0.47347476
2392.919,0.47369275
2394.577,0.47401632
2396.238,0.47433292
2397.901,0.4745891
2399.566,0.47481824
2401.233,0.47495045
2402.903,0.47520809
2404.575,0.47537954
2406.25,0.4752487
2407.926,0.47508015
2409.606,0.47498303
2411.287,0.4750879
2412.971,0.47516127
2414.657,0.47511361
2416.345,0.47503271
2418.036,0.47486566
2419.729,0.47479224
2421.424,0.47447942
2423.122,0.4740523
2424.822,0.47387289
2426.524,0.47333408
2428.229,0.47282285
2429.936,0.47302138
2431.646,0.47317864
2433.358,0.47291424
2435.072,0.47256758
2436.789,0.47228272
2438.508,0.47204624
2440.229,0.47180073
2441.953,0.47154958
2443.679,0.47119814
2445.408,0.47091937
2447.139,0.47077688
2448.873,0.4703086
2450.609,0.46945464
2452.347,0.46865513
2454.088,0.46813619
2455.831,0.46763493
2457.577,0.46698361
2459.325,0.46629834
2461.076,0.46554582
2462.829,0.46482129
2464.585,0.46422557
2466.343,0.46365936
2468.104,0.46308494
2469.867,0.46235979
2471.632,0.46151785
2473.4,0.46071055
2475.171,0.45982516
2476.944,0.45876515
2478.72,0.45808427
2480.498,0.45772201
2482.278,0.45690178
2484.062,0.45607329
2485.847,0.45544421
2487.636,0.45473026
2489.427,0.45428099
2491.22,0.45382936
2493.016,0.45292723
2494.814,0.45245683
2496.615,0.45242526
2498.419,0.45183024
2500.225,0.45130791
2502.034,0.45121929
2503.845,0.45093144
2505.659,0.45024734
2507.476,0.44967839
2509.295,0.44953448
2511.117,0.44930365
2512.942,0.44905056
2514.769,0.44879885
2516.598,0.44828399
2518.431,0.44771663
2520.266,0.44718662
2522.103,0.4470276
2523.944,0.44715388
2525.787,0.44685678
2527.632,0.4464204
2529.48,0.44621834
2531.331,0.4459416
2533.185,0.44590098
2535.041,0.44617465
2536.9,0.44620171
2538.762,0.44609377
2540.627,0.44624255
2542.494,0.44634345
2544.364,0.44614368
2546.236,0.44612882
2548.112,0.44632314
2549.99,0.44654521
2551.87,0.44659748
2553.754,0.44623292
2555.64,0.44579558
2557.529,0.44568875
2559.421,0.44633916
2561.316,0.44726989
2563.213,0.44724108
2565.113,0.4464721
2567.016,0.44632858
2568.922,0.44677884
2570.831,0.44685198
2572.742,0.44682675
2574.656,0.44674591
2576.573,0.44626721
2578.493,0.44576057
2580.416,0.44578724
2582.342,0.44647572
2584.27,0.44669843
2586.201,0.44603727
2588.135,0.44508554
2590.072,0.44414861
2592.012,0.44513699
2593.955,0.44762827
2595.9,0.44632005
2597.849,0.44325887
2599.8,0.44249713
2601.755,0.44279538
2603.712,0.44329016
2605.672,0.44300248
2607.635,0.44144761
2609.601,0.43995597
2611.57,0.43883547
2613.542,0.43847272
2615.517,0.43885616
2617.495,0.43879899
2619.475,0.43831596
2621.459,0.43684436
2623.446,0.43523303
2625.435,0.43489616
2627.428,0.43481266
2629.424,0.4346968
2631.423,0.43364514
2633.424,0.43175769
2635.429,0.43042526
2637.437,0.42941903
2639.447,0.42837655
2641.461,0.42705954
2643.478,0.42585298
2645.498,0.42503032
2647.521,0.42395144
2649.547,0.42239314
2651.576,0.42081844
2653.609,0.41927859
2655.644,0.41722032
2657.682,0.41522255
2659.724,0.41368361
2661.768,0.41191235
2663.816,0.41123743
2665.867,0.4106645
2667.921,0.40865673
2669.978,0.40652094
2672.038,0.4023582
2674.102,0.39837778
2676.168,0.39631613
2678.238,0.39297366
2680.311,0.38768668
2682.387,0.38316659
2684.467,0.37939235
2686.549,0.37475401
2688.635,0.36921488
2690.724,0.36420018
2692.816,0.36070886
2694.911,0.35608631
2697.01,0.34905924
2699.112,0.34292608
2701.217,0.33788616
2703.325,0.33154347
2705.437,0.32448502
2707.552,0.31865968
2709.67,0.31365255
2711.791,0.30444098
2713.916,0.29050108
2716.044,0.27668586
2718.175,0.26622888
2720.31,0.25573132
2722.448,0.24003968
2724.589,0.2222443
2726.734,0.20227149
2728.882,0.18330654
2731.034,0.16664034
2733.188,0.151624
2735.347,0.13687488
2737.508,0.12335472
2739.673,0.11251577
2741.841,0.10060246
2744.013,0.08900603
2746.188,0.08021431
2748.367,0.07304013
2750.549,0.06680591
2752.734,0.06228074
2754.923,0.05906361
2757.115,0.0550174
2759.311,0.05103173
2761.51,0.04868385
2763.713,0.04689099
2765.919,0.04488194
2768.129,0.04329896
2770.342,0.04209424
2772.559,0.04059232
2774.779,0.03923189
2777.003,0.03855898
2779.23,0.03808105
2781.461,0.03735824
2783.696,0.03674711
2785.934,0.03643396
2788.175,0.0360569
2790.42,0.03534925
2792.669,0.03482783
2794.922,0.03461862
2797.178,0.0343485
2799.437,0.03412422
2801.7,0.03426228
2803.967,0.03431617
2806.238,0.03384497
2808.512,0.03333236
2810.789,0.03333315
2813.071,0.03367194
2815.356,0.03408935
2817.645,0.03443653
2819.937,0.03421305
2822.233,0.03372017
2824.533,0.03366835
2826.837,0.03389427
2829.144,0.03401741
2831.455,0.03406187
2833.77,0.03427769
2836.089,0.03446066
2838.411,0.03436952
2840.737,0.0341888
2843.067,0.03423039
2845.401,0.03429488
2847.739,0.03408955
2850.08,0.03390538
2852.425,0.03410368
2854.774,0.03438696
2857.127,0.03434876
2859.484,0.03415762
2861.844,0.0341051
2864.209,0.03420288
2866.577,0.03426908
2868.949,0.03422629
2871.325,0.03405278
2873.705,0.03381267
2876.089,0.03363387
2878.477,0.03352111
2880.869,0.03341224
2883.265,0.0332275
2885.664,0.03286978
2888.068,0.03279016
2890.476,0.03300045
2892.887,0.03282936
2895.303,0.03257752
2897.723,0.03258071
2900.146,0.03261149
2902.574,0.03241062
2905.006,0.03215065
2907.441,0.03202198
2909.881,0.03210987
2912.325,0.03219193
2914.773,0.03212449
2917.225,0.03248508
2919.681,0.03281231
2922.142,0.03247423
2924.606,0.03190277
2927.075,0.03146419
2929.547,0.03143314
2932.024,0.03168028
2934.505,0.03176624
2936.99,0.03183696
2939.479,0.03217145
2941.973,0.0322858
2944.471,0.03241925
2946.973,0.03332896
2949.479,0.03376366
2951.989,0.03334945
2954.504,0.03348747
2957.023,0.03363002
2959.546,0.03319708
2962.073,0.03291956
2964.605,0.03302982
2967.141,0.03334267
2969.681,0.03346514
2972.226,0.03380481
2974.775,0.03479193
2977.328,0.03524613
2979.886,0.03486666
2982.448,0.03475172
2985.015,0.03486609
2987.586,0.03503343
2990.161,0.03571402
2992.74,0.03633964
2995.324,0.03627418
2997.913,0.03639257
3000.506,0.03704714
3003.103,0.03760502
3005.705,0.03762576
3008.312,0.03764276
3010.922,0.03818934
3013.538,0.03881232
3016.158,0.03919222
3018.782,0.03921154
3021.411,0.03931568
3024.044,0.03978491
3026.683,0.04021002
3029.325,0.04111586
3031.972,0.04258988
3034.624,0.0429595
3037.281,0.04227301
3039.942,0.0422059
3042.607,0.04290306
3045.278,0.04358156
3047.953,0.04374421
3050.632,0.04378976
3053.317,0.04404838
3056.006,0.04432877
3058.7,0.04468608
3061.398,0.04512072
3064.101,0.04575233
3066.809,0.04614331
3069.522,0.04606063
3072.239,0.04615016
3074.962,0.04653327
3077.689,0.04703038
3080.421,0.04747203
3083.157,0.04776755
3085.899,0.04825317
3088.645,0.04877959
3091.396,0.04891917
3094.153,0.04902949
3096.914,0.04935715
3099.679,0.05002465
3102.45,0.05052125
3105.226,0.05038201
3108.007,0.05042505
3110.792,0.05076423
3113.583,0.05106923
3116.378,0.05144387
3119.179,0.05189225
3121.985,0.05228271
3124.795,0.05279749
3127.611,0.05329454
3130.431,0.05354293
3133.257,0.05388156
3136.088,0.05419041
3138.924,0.05449878
3141.765,0.05494819
3144.611,0.05539225
3147.462,0.05596221
3150.319,0.05670523
3153.18,0.05731642
3156.047,0.05776769
3158.919,0.05844328
3161.796,0.05910575
3164.678,0.05958698
3167.566,0.06012568
3170.458,0.06067885
3173.356,0.06111805
3176.26,0.06170875
3179.168,0.06319177
3182.082,0.06454175
3185.001,0.06460068
3187.926,0.06452196
3190.856,0.06525347
3193.791,0.06653525
3196.731,0.06726618
3199.677,0.06749691
3202.629,0.06814691
3205.585,0.06891731
3208.548,0.06970644
3211.515,0.07125585
3214.488,0.07336334
3217.467,0.07470808
3220.451,0.07468011
3223.441,0.07451086
3226.436,0.07524746
3229.437,0.07596856
3232.443,0.07661089
3235.455,0.0776293
3238.472,0.0784575
3241.495,0.07935172
3244.523,0.08060538
3247.558,0.08176521
3250.598,0.08301199
3253.643,0.08443706
3256.694,0.08582425
3259.751,0.08643216
3262.814,0.08613187
3265.882,0.08658071
3268.956,0.08798494
3272.036,0.08909477
3275.122,0.08968869
3278.213,0.09027339
3281.31,0.09126394
3284.413,0.092476
3287.522,0.09351343
3290.637,0.09441593
3293.757,0.09579589
3296.884,0.09724718
3300.016,0.09766047
3303.155,0.09813787
3306.299,0.09920553
3309.449,0.09975832
3312.605,0.10030035
3315.767,0.10123177
3318.936,0.10206879
3322.11,0.10298338
3325.29,0.10434608
3328.476,0.1058551
3331.669,0.10621557
3334.867,0.10549919
3338.072,0.10522391
3341.282,0.10567969
3344.499,0.10646728
3347.722,0.1071945
3350.952,0.10784728
3354.187,0.10809365
3357.429,0.10792033
3360.677,0.10840756
3363.931,0.10931794
3367.191,0.10946345
3370.458,0.10910894
3373.731,0.10903129
3377.01,0.10921238
3380.296,0.10978319
3383.588,0.11090591
3386.886,0.11225726
3390.191,0.11338383
3393.502,0.11442154
3396.82,0.11542914
3400.144,0.11609268
3403.475,0.11681854
3406.812,0.11726673
3410.156,0.11681137
3413.506,0.11649784
3416.862,0.11693024
3420.226,0.11819072
3423.596,0.12022225
3426.972,0.12199874
3430.355,0.12355827
3433.745,0.12545983
3437.141,0.12765337
3440.545,0.13020175
3443.954,0.1319767
3447.371,0.13225417
3450.794,0.13274689
3454.224,0.1341099
3457.661,0.13531369
3461.105,0.13627642
3464.556,0.13729415
3468.013,0.13796729
3471.477,0.13816819
3474.948,0.13843537
3478.426,0.13908517
3481.911,0.13995126
3485.403,0.14086239
3488.902,0.14233743
3492.408,0.14387325
3495.921,0.14427152
3499.441,0.14426796
3502.968,0.14500592
3506.502,0.14683943
3510.043,0.14926859
3513.592,0.15170414
3517.147,0.15436655
3520.71,0.1571371
3524.28,0.15957208
3527.857,0.16170043
3531.441,0.1642824
3535.032,0.16697802
3538.631,0.16871828
3542.237,0.16997469
3545.851,0.1714079
3549.471,0.17301287
3553.099,0.17474164
3556.735,0.17642876
3560.378,0.17805723
3564.028,0.17969134
3567.686,0.18133594
3571.351,0.18294003
3575.024,0.18437415
3578.704,0.18578816
3582.392,0.18744699
3586.088,0.18917244
3589.791,0.19058099
3593.501,0.19205421
3597.22,0.1936143
3600.946,0.19464952
3604.679,0.19563077
3608.421,0.19694962
3612.17,0.19864246
3615.926,0.20052419
3619.691,0.2018553
3623.463,0.20303122
3627.244,0.20441301
3631.032,0.20557905
3634.828,0.20684811
3638.632,0.20834917
3642.444,0.20963282
3646.263,0.21090365
3650.091,0.21245998
3653.927,0.21385318
3657.771,0.21495832
3661.623,0.21627354
3665.483,0.21782775
3669.351,0.21931539
3673.227,0.22069713
3677.111,0.22231686
3681.004,0.22429145
3684.905,0.22598078
3688.814,0.22722568
3692.731,0.22854723
3696.656,0.23012002
3700.59,0.23160122
3704.532,0.23300166
3708.483,0.23458579
3712.442,0.23612925
3716.409,0.23763545
3720.385,0.23928885
3724.37,0.2408141
3728.362,0.24208761
3732.364,0.24335469
3736.374,0.24481934
3740.392,0.24640593
3744.419,0.24780114
3748.455,0.24910268
3752.499,0.25038775
3756.553,0.25139452
3760.614,0.25233282
3764.685,0.25336641
3768.764,0.25424872
3772.853,0.25501472
3776.95,0.25563461
3781.056,0.25621901
3785.17,0.25692388
3789.294,0.25738924
3793.427,0.25751331
3797.568,0.25752554
3801.719,0.25778851
3805.879,0.25830705
3810.048,0.25862242
3814.225,0.25882317
3818.412,0.25915181
3822.609,0.25948835
3826.814,0.25980157
3831.029,0.26016762
3835.252,0.26053785
3839.486,0.26090863
3843.728,0.26144919
3847.98,0.2622576
3852.241,0.26308734
3856.512,0.26366966
3860.792,0.2644569
3865.081,0.26545771
3869.38,0.26603605
3873.689,0.26652008
3878.007,0.26727013
3882.334,0.26801569
3886.672,0.26865857
3891.019,0.26926417
3895.375,0.2698077
3899.742,0.2702746
3904.118,0.27080281
3908.504,0.27136024
3912.9,0.27185173
3917.305,0.27234544
3921.721,0.27271496
3926.146,0.27284722
3930.581,0.27296202
3935.027,0.27322602
3939.482,0.27340874
3943.948,0.27330126
3948.423,0.27301148
3952.909,0.27255259
3957.405,0.27206268
3961.911,0.27185476
3966.427,0.27199244
3970.954,0.27226001
3975.491,0.27248443
3980.038,0.27294449
3984.595,0.27380681
3989.163,0.27493483
3993.742,0.27655632
3998.33,0.27882636
4002.93,0.28140144
4007.54,0.28428679
4012.16,0.2875849
4016.791,0.29098499
4021.433,0.29451696
4026.086,0.29835054
4030.749,0.30225434
4035.423,0.30627086
4040.108,0.31067248
4044.804,0.31538145
4049.51,0.31992673
4054.228,0.32408982
4058.956,0.32825659
4063.695,0.33213917
4068.446,0.33559883
4073.207,0.33920692
4077.98,0.34274638
4082.764,0.34610056
4087.559,0.3494561
4092.365,0.35260281
4097.183,0.35552448
4102.012,0.35829917
4106.852,0.36078861
4111.703,0.36317274
4116.566,0.36574073
4121.441,0.36824749
4126.327,0.37055826
4131.224,0.37288488
4136.133,0.37533865
4141.054,0.37761605
4145.987,0.37943939
4150.931,0.38137266
4155.887,0.38365956
4160.854,0.38567201
4165.834,0.38777557
4170.826,0.39024523
4175.829,0.39249945
4180.844,0.39479802
4185.872,0.39732539
4190.911,0.40045313
4195.963,0.40532524
4201.026,0.41302956
4206.102,0.42408655
4211.19,0.437902
4216.291,0.45310043
4221.404,0.46786184
4226.529,0.48104132
4231.666,0.49167819
4236.816,0.49836903
4241.979,0.49983356
4247.154,0.49455815
4252.341,0.47997411
4257.542,0.46836027
4262.754,0.47407018
4267.98,0.48947754
4273.219,0.49669604
4278.47,0.49818179
4283.734,0.49981546
4289.011,0.50214296
4294.301,0.50302787
4299.604,0.50183501
4304.92,0.50108222
4310.25,0.49947053
4315.592,0.49587717
4320.948,0.49281794
4326.317,0.49106156
4331.699,0.48901709
4337.095,0.48668786
4342.504,0.48570416
4347.926,0.48596179
4353.362,0.48642204
4358.811,0.4871229
4364.275,0.48807352
4369.751,0.48953657
4375.242,0.49156402
4380.746,0.49383603
4386.264,0.49650215
4391.796,0.49955162
4397.342,0.50255571
4402.902,0.50537052
4408.476,0.50821572
4414.064,0.51114626
4419.666,0.51403386
4425.282,0.5166148
4430.913,0.518811
4436.558,0.52068054
4442.217,0.52257137
4447.891,0.52482821
4453.579,0.52727463
4459.281,0.53004141
4464.998,0.53255945
4470.73,0.53449403
4476.477,0.53617733
4482.238,0.53795157
4488.014,0.54009186
4493.805,0.54187085
4499.611,0.54335087
4505.431,0.54465445
4511.267,0.54633348
4517.118,0.54891574
4522.984,0.55088732
4528.865,0.55219706
4534.762,0.55418773
4540.674,0.55644757
4546.601,0.55819693
4552.543,0.56015194
4558.502,0.56284805
4564.475,0.56504568
4570.465,0.56668399
4576.47,0.56835488
4582.491,0.56994284
4588.527,0.57169558
4594.58,0.57378375
4600.648,0.5763061
4606.732,0.57818046
4612.833,0.57931417
4618.949,0.58125439
4625.082,0.58380051
4631.231,0.58613539
4637.397,0.58836774
4643.578,0.59031953
4649.777,0.59191487
4655.991,0.59415151
4662.223,0.59705995
4668.471,0.59952929
4674.735,0.60186139
4681.017,0.60443823
4687.315,0.60685529
4693.63,0.60924591
4699.962,0.61160487
4706.312,0.61389772
4712.678,0.61659093
4719.062,0.61921954
4725.463,0.62110945
4731.881,0.62318011
4738.316,0.62548577
4744.769,0.6271625
4751.24,0.62965734
4757.728,0.63266344
4764.234,0.6347781
4770.758,0.63708887
4777.299,0.63937404
4783.859,0.64143993
4790.436,0.64386117
4797.032,0.64534839
4803.645,0.64691243
4810.277,0.64921281
4816.927,0.65031061
4823.596,0.65156995
4830.283,0.65426664
4836.988,0.65696699
4843.712,0.65973153
4850.455,0.66188766
4857.216,0.66243131
4863.996,0.66372512
4870.795,0.66635887
4877.613,0.66864228
4884.451,0.67050206
4891.307,0.672026
4898.182,0.67351
4905.077,0.67507976
4911.991,0.67661171
4918.925,0.67815854
4925.878,0.67968021
4932.851,0.6811998
4939.844,0.68277523
4946.856,0.68460287
4953.888,0.68674947
4960.941,0.68851686
4968.013,0.68964246
4975.105,0.69100213
4982.218,0.69259814
4989.351,0.69426464
4996.504,0.69605558
5003.678,0.69740716
5010.872,0.69905653
5018.087,0.70148847
5025.323,0.70317077
5032.58,0.70401897
5039.857,0.70527391
5047.156,0.70690216
5054.475,0.70858721
5061.816,0.71032346
5069.179,0.71201752
5076.562,0.71404771
5083.967,0.71603325
5091.394,0.71722559
5098.842,0.71834124
5106.312,0.71992434
5113.804,0.72165202
5121.318,0.72315467
5128.854,0.7245746
5136.412,0.72674558
5143.992,0.72953467
5151.595,0.73104732
5159.22,0.7316557
5166.868,0.73310569
5174.538,0.73476458
5182.231,0.73618498
5189.947,0.7383057
5197.686,0.74095359
5205.448,0.74366483
5213.233,0.7458434
5221.041,0.74613768
5228.873,0.74662754
5236.728,0.74852617
5244.607,0.75009951
5252.51,0.7512304
5260.436,0.75247291
5268.386,0.75430669
5276.36,0.75630735
5284.358,0.75843658
5292.381,0.76038459
5300.428,0.7609937
5308.499,0.76172159
5316.595,0.76331526
5324.715,0.76476909
5332.86,0.76611393
5341.031,0.76938937
5349.226,0.7734698
5357.446,0.77375814
5365.692,0.77279151
5373.962,0.77371648
5382.259,0.77502855
5390.581,0.77633277
5398.928,0.77779668
5407.302,0.78035959
5415.701,0.785706
5424.127,0.78880349
5432.579,0.78667629
5441.057,0.78707432
5449.561,0.79069764
5458.092,0.79417334
5466.65,0.79778642
5475.234,0.80059294
5483.846,0.80203286
5492.484,0.80269411
5501.15,0.80547945
5509.843,0.81016271
5518.564,0.81673775
5527.312,0.82611809
5536.087,0.83798738
5544.891,0.85790896
5553.723,0.88985863
5562.582,0.91874811
5571.47,0.86213381
5580.387,0.74173193
5589.332,0.68272956
5598.305,0.69054837
5607.307,0.70742785
5616.339,0.71888249
5625.399,0.72905078
5634.489,0.74171248
5643.607,0.75232365
5652.756,0.75767001
5661.934,0.76144562
5671.142,0.76513195
5680.379,0.76870792
5689.647,0.77220334
5698.945,0.77713767
5708.274,0.78338142
5717.633,0.78762146
5727.022,0.7902079
5736.443,0.7928061
5745.894,0.79459473
5755.377,0.79965812
5764.89,0.80503884
5774.436,0.80374821
5784.012,0.80092463
5793.621,0.79884463
5803.262,0.80233718
5812.934,0.8123333
5822.639,0.8169012
5832.376,0.81373763
5842.146,0.81140286
5851.948,0.81278741
5861.783,0.81680792
5871.652,0.82352359
5881.553,0.82893842
5891.488,0.82787718
5901.457,0.82345429
5911.459,0.82137546
5921.495,0.82565493
5931.565,0.83377115
5941.67,0.83401731
5951.809,0.83027866
5961.982,0.83264374
5972.19,0.83610269
5982.433,0.83762277
5992.711,0.83712273
6003.025,0.83705233
6013.374,0.83896896
6023.759,0.83917505
6034.179,0.84538053
6044.636,0.8550411
6055.129,0.85394119
6065.658,0.85202607
6076.224,0.85191569
6086.826,0.84961412
6097.466,0.85229572
6108.143,0.85812753
6118.857,0.85787166
6129.609,0.85556868
6140.398,0.85719977
6151.226,0.85981832
6162.091,0.86158171
6172.996,0.86496305
6183.938,0.86813635
6194.92,0.86715496
6205.94,0.8663831
6217.0,0.86795212
6228.099,0.87084166
6239.237,0.87334861
6250.416,0.8743245
6261.635,0.8753896
6272.893,0.87659229
6284.193,0.87799807
6295.533,0.87986497
6306.914,0.88135819
6318.336,0.88307819
6329.799,0.88743027
6341.304,0.89040073
6352.851,0.88997139
6364.44,0.89182856
6376.071,0.89274043
6387.745,0.89288404
6399.461,0.89986948
6411.221,0.90659369
6423.023,0.90353815
6434.869,0.89998194
6446.759,0.89999542
6458.693,0.90172729
6470.671,0.90652266
6482.693,0.91227551
6494.76,0.91185506
6506.872,0.90898427
6519.029,0.90910359
6531.231,0.90980885
6543.48,0.91183482
6555.774,0.91519301
6568.114,0.91771349
6580.501,0.91828865
6592.934,0.91787068
6605.415,0.91811876
6617.943,0.92188665
6630.518,0.92597519
6643.141,0.92335441
6655.812,0.92133142
6668.532,0.9235299
6681.3,0.92416931
6694.117,0.92512275
6706.983,0.92737349
6719.899,0.92697202
6732.864,0.92604081
6745.879,0.92686835
6758.945,0.92920017
6772.062,0.93280311
6785.229,0.93423343
6798.448,0.9326203
6811.718,0.93295209
6825.039,0.93423172
6838.413,0.93596204
6851.84,0.93992809
6865.319,0.93980113
6878.851,0.93725844
6892.437,0.93779846
6906.076,0.93859378
6919.769,0.93853744
6933.517,0.9399303
6947.319,0.94295265
6961.176,0.94370505
6975.089,0.94293886
6989.057,0.9437553
7003.081,0.94472288
7017.161,0.94612233
7031.298,0.9489879
7045.492,0.95028683
7059.743,0.94935703
7074.052,0.94931457
7088.419,0.95003046
7102.845,0.95092121
7117.329,0.95206848
7131.872,0.95344786
7146.475,0.95516446
7161.137,0.95600835
7175.86,0.95590472
7190.643,0.95685141
7205.487,0.95802329
7220.393,0.95819359
7235.36,0.95893595
7250.39,0.96026389
7265.481,0.9612752
7280.636,0.96188039
7295.854,0.96242764
7311.135,0.96341614
7326.481,0.96466894
7341.891,0.96532675
7357.366,0.96570731
7372.906,0.96650173
7388.512,0.96735751
7404.184,0.96798574
7419.922,0.96859775
7435.728,0.9695003
7451.601,0.97059306
7467.541,0.97129024
7483.55,0.97154945
7499.628,0.97189048
7515.774,0.97247294
7531.99,0.97318534
7548.277,0.97392896
7564.633,0.97463613
7581.061,0.97522415
7597.56,0.97578154
7614.131,0.9763287
7630.774,0.97680148
7647.491,0.97729584
7664.28,0.97794117
7681.143,0.97846981
7698.08,0.97887546
7715.093,0.97944162
7732.18,0.98003874
7749.343,0.98062085
7766.583,0.98134623
7783.899,0.98214641
7801.292,0.98277592
7818.764,0.98337078
7836.313,0.98404186
7853.942,0.9847384
7871.649,0.98545001
7889.437,0.98608909
7907.305,0.98693107
7925.254,0.98794548
7943.285,0.98874846
7961.398,0.98940513
7979.594,0.9900158
7997.872,0.99063843
8016.235,0.99134797
8034.682,0.99205689
8053.214,0.99272723
8071.832,0.99337501
8090.535,0.99404269
8109.326,0.9947401
8128.204,0.99541141
8147.169,0.99604438
8166.224,0.99659329
8185.368,0.9972009
8204.601,0.99784913
8223.925,0.99840929
8243.34,0.99901561
8262.847,0.99958417
8282.446,0.0100016977
8302.139,0.0100085824
8321.925,0.0100137674
8341.805,0.0100185872
8361.781,0.0100243357
8381.852,0.0100297685
8402.02,0.0100357334
8422.285,0.0100415506
8442.648,0.0100467232
8463.109,0.0100525526
8483.67,0.0100591702
8504.331,0.010064435
8525.092,0.0100689931
8545.955,0.0100753378
8566.921,0.0100814057
8587.989,0.0100864943
8609.161,0.0100905467
8630.437,0.010093869
8651.819,0.0101013937
8673.307,0.0101099898
8694.902,0.0101140894
8716.604,0.0101169848
8738.415,0.0101201478
8760.335,0.0101248787
8782.365,0.0101311003
8804.507,0.0101369573
8826.76,0.0101439834
8849.125,0.0101507037
8871.604,0.0101561178
8894.198,0.0101602529
8916.907,0.0101633019
8939.732,0.010168146
8962.673,0.0101737329
8985.733,0.0101780009
9008.912,0.0101814569
9032.21,0.0101837035
9055.629,0.0101848972
9079.17,0.0101856711
9102.833,0.0101855892
9126.62,0.0101851705
9150.531,0.0101849844
9174.568,0.0101837896
9198.731,0.0101820405
9223.022,0.0101832565
9247.441,0.0101857044
9271.99,0.0101853138
9296.669,0.0101847404
9321.48,0.0101842483
9346.423,0.0101838019
9371.5,0.010185891
9396.712,0.0101882856
9422.06,0.0101903485
9447.545,0.0101932009
9473.167,0.0101950905
9498.929,0.0101945099
9524.832,0.0101940104
9550.876,0.0101962927
9577.062,0.0101985219
9603.393,0.0101996842
9629.868,0.0102005054
9656.49,0.0102015372
9683.259,0.0102040336
9710.176,0.0102050153
9737.244,0.010204602
9764.463,0.0102053791
9791.834,0.01020638
9819.359,0.0102072586
9847.039,0.010209189
9874.875,0.0102118753
9902.869,0.0102137252
9931.022,0.0102150847
9959.336,0.0102158528
9987.811,0.0102168762
10016.449,0.01021952
10045.252,0.0102218126
10074.221,0.0102240108
10103.357,0.0102265197
10132.662,0.0102289099
10162.137,0.0102321031
10191.784,0.010235148
10221.604,0.0102371211
10251.6,0.01023863
10281.771,0.010240774
10312.121,0.01024232
10342.65,0.0102433755
10373.36,0.010245728
10404.253,0.0102476122
10435.331,0.0102476923
10466.594,0.0102481785
10498.045,0.0102488714
10529.686,0.0102477518
10561.517,0.0102464271
10593.542,0.0102467951
10625.761,0.010248894
10658.176,0.0102504401
10690.79,0.0102496475
10723.604,0.0102495679
10756.619,0.0102512384
10789.839,0.0102519171
10823.264,0.010251931
10856.896,0.0102520363
10890.738,0.0102530725
10924.791,0.0102552883
10959.058,0.0102564037
10993.541,0.0102556406
11028.24,0.0102549811
11063.16,0.0102559646
11098.301,0.0102569911
11133.665,0.0102574791
11169.256,0.0102580123
11205.075,0.010258629
11241.124,0.0102598168
11277.405,0.0102583829
11313.921,0.0102549433
11350.675,0.0102541124
11387.667,0.0102517778
11424.901,0.0102464548
11462.38,0.010242656
11500.105,0.0102400419
11538.079,0.0102376071
11576.304,0.0102363902
11614.783,0.0102369634
11653.518,0.0102369144
11692.513,0.0102349356
11731.769,0.0102335554
11771.29,0.0102339364
11811.077,0.0102355209
11851.134,0.0102360224
11891.464,0.0102351826
11932.068,0.010235248
11972.951,0.0102351937
12014.114,0.0102341627
12055.562,0.0102336158
12097.296,0.0102338772
12139.32,0.0102331594
12181.636,0.0102322058
12224.249,0.0102313563
12267.16,0.0102278104
12310.373,0.0102254759
12353.892,0.010228633
12397.719,0.0102308345
12441.859,0.0102281852
12486.313,0.0102268665
12531.086,0.01022895
12576.18,0.0102304277
12621.601,0.0102291742
12667.35,0.0102280728
12713.432,0.0102308689
12759.85,0.0102343326
12806.608,0.0102341935
12853.71,0.0102323516
12901.159,0.0102331706
12948.96,0.0102353743
12997.116,0.0102365421
13045.631,0.0102383549
13094.51,0.0102412618
13143.756,0.0102448345
13193.373,0.0102479484
13243.366,0.0102478532
13293.74,0.0102440698
13344.497,0.0102453123
13395.644,0.0102501766
13447.183,0.010247788
13499.121,0.010242919
13551.461,0.0102390349
13604.208,0.0102340825
13657.367,0.0102323105
13710.943,0.0102306467
13764.941,0.0102274953
13819.365,0.0102280931
13874.221,0.0102248585
13929.515,0.0102161173
13985.25,0.0102114577
14041.433,0.0102122564
14098.068,0.0102134033
14155.163,0.0102117872
14212.721,0.010209906
14270.749,0.0101966193
14329.252,0.0101790371
14388.237,0.0101790848
14447.709,0.0101796464
14507.674,0.0101734008
14568.139,0.0101693353
14629.109,0.0101653114
14690.592,0.0101555827
14752.594,0.0101405001
14815.121,0.0101267881
14878.179,0.0101093412
14941.777,0.0100861352
15005.92,0.0100591554
15070.616,0.0100339004
15135.871,0.0100156732
15201.695,0.9984982
15268.092,0.99241857
15335.072,0.98489528
15402.642,0.97641452
15470.81,0.96665631
15539.583,0.95517314
15608.97,0.93899533
15678.979,0.91693565
15749.619,0.89278831
15820.897,0.85956766
15892.824,0.81548883
15965.407,0.78168333
