Database of Origin,University of Winnipeg Spectrophotometer Facility
Sample Description,"HOSERLab master pyroxenes, FTIR data"
Date Added,2016-12-14 03:34:50.035596

Data ID,FTIR_PYX_17         
Sample ID,PYX119
Mineral Name,Orthopyroxene
Grain Size,45-90 um
Viewing Geometry,"i=30, e=0"
Material Class,Inosilicate

Wavelength
2000.56,0.17579311
2001.142,0.17584858
2001.725,0.17574855
2002.307,0.17561173
2002.891,0.17550852
2003.474,0.17550602
2004.058,0.17566366
2004.643,0.1759299
2005.227,0.17616878
2005.812,0.17631095
2006.397,0.17638799
2006.983,0.17645118
2007.569,0.17654108
2008.155,0.1766907
2008.742,0.1768687
2009.329,0.17698111
2009.916,0.17698676
2010.504,0.17694184
2011.092,0.17691265
2011.68,0.17692177
2012.269,0.17698354
2012.858,0.17711729
2013.447,0.17731425
2014.037,0.17753866
2014.627,0.17774735
2015.217,0.17789896
2015.808,0.17798374
2016.399,0.17805558
2016.99,0.1781823
2017.582,0.17837831
2018.174,0.17860652
2018.766,0.1788192
2019.359,0.17896377
2019.952,0.17901513
2020.546,0.17901079
2021.139,0.17900477
2021.733,0.1789954
2022.328,0.17896549
2022.923,0.17895203
2023.518,0.17901548
2024.113,0.17916575
2024.709,0.17936317
2025.305,0.1795525
2025.902,0.17968621
2026.499,0.1797549
2027.096,0.17980635
2027.693,0.1798788
2028.291,0.17994512
2028.89,0.17997486
2029.488,0.18000698
2030.087,0.18010005
2030.686,0.18026222
2031.286,0.18045109
2031.886,0.18061625
2032.486,0.18072908
2033.087,0.18080892
2033.688,0.18090573
2034.289,0.18104938
2034.891,0.18123997
2035.493,0.18147555
2036.096,0.18172243
2036.698,0.18189165
2037.302,0.18192692
2037.905,0.18188366
2038.509,0.18185054
2039.113,0.18186312
2039.718,0.18193955
2040.322,0.18210342
2040.928,0.18230856
2041.533,0.18246293
2042.139,0.18255159
2042.746,0.18263285
2043.352,0.18272799
2043.959,0.18283481
2044.567,0.18299881
2045.174,0.18324464
2045.782,0.18348789
2046.391,0.18364818
2047.0,0.18376024
2047.609,0.18388272
2048.218,0.18399667
2048.828,0.18408032
2049.438,0.18416179
2050.049,0.18424793
2050.66,0.18430918
2051.271,0.18435949
2051.883,0.18445383
2052.495,0.18461806
2053.107,0.18484581
2053.72,0.18513861
2054.333,0.18546751
2054.947,0.18574767
2055.56,0.18591496
2056.175,0.18599602
2056.789,0.18605894
2057.404,0.18613589
2058.019,0.18620092
2058.635,0.18620024
2059.251,0.18612337
2059.867,0.18604763
2060.484,0.1860631
2061.101,0.18616176
2061.718,0.18626363
2062.336,0.18632966
2062.954,0.18637451
2063.573,0.1864279
2064.192,0.18653505
2064.811,0.18671603
2065.431,0.18689455
2066.051,0.18697175
2066.671,0.18697023
2067.292,0.1869906
2067.913,0.18704491
2068.534,0.18708225
2069.156,0.18713495
2069.778,0.18726474
2070.401,0.18741737
2071.024,0.18751113
2071.647,0.18759767
2072.271,0.18776834
2072.895,0.1879884
2073.519,0.18816381
2074.144,0.18827264
2074.769,0.18832771
2075.395,0.18833316
2076.02,0.18836227
2076.647,0.1885164
2077.273,0.18874095
2077.9,0.18886409
2078.528,0.18886425
2079.155,0.18890321
2079.784,0.18906682
2080.412,0.18927623
2081.041,0.18947605
2081.67,0.18969758
2082.3,0.18992018
2082.93,0.19006214
2083.56,0.19012677
2084.191,0.19019446
2084.822,0.19029335
2085.454,0.19040105
2086.085,0.19052729
2086.718,0.19068403
2087.35,0.19084547
2087.983,0.19102064
2088.617,0.19127206
2089.251,0.19158684
2089.885,0.19183939
2090.519,0.19195188
2091.154,0.19199241
2091.789,0.19205955
2092.425,0.19216321
2093.061,0.19225384
2093.697,0.19229745
2094.334,0.19230127
2094.971,0.19230844
2095.609,0.1923585
2096.247,0.1924408
2096.885,0.19250507
2097.524,0.19252016
2098.163,0.19248973
2098.803,0.19243675
2099.443,0.19240637
2100.083,0.19243981
2100.723,0.19251731
2101.364,0.19257702
2102.006,0.19259147
2102.648,0.19257277
2103.29,0.19252762
2103.932,0.19247618
2104.575,0.19246372
2105.219,0.19248284
2105.862,0.1924596
2106.506,0.19238339
2107.151,0.19235132
2107.796,0.1924155
2108.441,0.19250332
2109.087,0.19254329
2109.733,0.19254217
2110.379,0.19250636
2111.026,0.19241155
2111.673,0.19229015
2112.321,0.1922192
2112.969,0.19221263
2113.617,0.19222897
2114.266,0.19226932
2114.915,0.19236274
2115.565,0.19250168
2116.215,0.19266865
2116.865,0.19287649
2117.516,0.19311074
2118.167,0.19329166
2118.819,0.19335993
2119.471,0.19335552
2120.123,0.19336665
2120.776,0.19343384
2121.429,0.19354107
2122.082,0.19367631
2122.736,0.19385906
2123.391,0.19409591
2124.045,0.19435279
2124.7,0.19460488
2125.356,0.19487544
2126.012,0.19518265
2126.668,0.19549561
2127.325,0.19579165
2127.982,0.19608828
2128.64,0.19637266
2129.297,0.19658707
2129.956,0.19672517
2130.614,0.19682585
2131.274,0.19684529
2131.933,0.19669837
2132.593,0.19645999
2133.253,0.19633439
2133.914,0.19640047
2134.575,0.1965571
2135.237,0.1966902
2135.899,0.19673134
2136.561,0.19663244
2137.224,0.19645655
2137.887,0.19639554
2138.55,0.19654133
2139.214,0.19676668
2139.879,0.19694007
2140.544,0.197088
2141.209,0.19726152
2141.874,0.19743834
2142.54,0.19762187
2143.207,0.19784437
2143.873,0.19803172
2144.541,0.19806188
2145.208,0.19795967
2145.876,0.19787039
2146.545,0.19786965
2147.214,0.19795382
2147.883,0.19813888
2148.553,0.19842181
2149.223,0.19871023
2149.893,0.19890896
2150.564,0.19901701
2151.235,0.19908729
2151.907,0.19917452
2152.579,0.19934255
2153.252,0.19961495
2153.925,0.1999107
2154.598,0.20011927
2155.272,0.20022719
2155.946,0.20030142
2156.621,0.20038915
2157.296,0.20049943
2157.972,0.20063889
2158.647,0.20080871
2159.324,0.20101044
2160.001,0.20127057
2160.678,0.20160524
2161.355,0.20196266
2162.033,0.20226336
2162.712,0.20248565
2163.39,0.2026585
2164.07,0.2027895
2164.749,0.20286458
2165.429,0.20290259
2166.11,0.20295913
2166.791,0.20308422
2167.472,0.20329078
2168.154,0.20353964
2168.836,0.20375246
2169.519,0.20388061
2170.202,0.20396414
2170.885,0.20406732
2171.569,0.20418341
2172.254,0.2042712
2172.938,0.20435853
2173.624,0.20451554
2174.309,0.20473547
2174.995,0.20493441
2175.682,0.20506213
2176.368,0.2051441
2177.056,0.20523921
2177.743,0.20539897
2178.432,0.20562816
2179.12,0.20584152
2179.809,0.205924
2180.499,0.20586762
2181.189,0.20579092
2181.879,0.20581627
2182.57,0.20598855
2183.261,0.20629068
2183.952,0.20665406
2184.644,0.20696038
2185.337,0.20711581
2186.03,0.20711735
2186.723,0.20701758
2187.417,0.206885
2188.111,0.20683039
2188.806,0.20696874
2189.501,0.20729374
2190.196,0.20765708
2190.892,0.20791289
2191.589,0.20802619
2192.285,0.20804859
2192.983,0.20807567
2193.68,0.20820494
2194.379,0.2084434
2195.077,0.20868635
2195.776,0.20884295
2196.476,0.20893379
2197.175,0.20902877
2197.876,0.20916469
2198.577,0.20934229
2199.278,0.20953936
2199.979,0.2097058
2200.682,0.20980726
2201.384,0.20987027
2202.087,0.20994556
2202.79,0.2100413
2203.494,0.21013713
2204.199,0.2102244
2204.903,0.21029711
2205.609,0.21034
2206.314,0.21036707
2207.02,0.21043952
2207.727,0.21061933
2208.434,0.21090779
2209.141,0.21123565
2209.849,0.21150563
2210.557,0.21164862
2211.266,0.21165496
2211.975,0.21158556
2212.685,0.21155757
2213.395,0.21167343
2214.106,0.21192856
2214.817,0.21221498
2215.528,0.21243504
2216.24,0.21257351
2216.952,0.21265497
2217.665,0.21271302
2218.379,0.21280304
2219.092,0.21294661
2219.806,0.21306837
2220.521,0.21308312
2221.236,0.21301313
2221.952,0.21293638
2222.668,0.21288085
2223.384,0.21286106
2224.101,0.21292093
2224.818,0.21305795
2225.536,0.21320299
2226.254,0.21332784
2226.973,0.21346149
2227.692,0.21359087
2228.412,0.21366847
2229.132,0.21369627
2229.853,0.21368706
2230.574,0.21360962
2231.295,0.21347224
2232.017,0.2133535
2232.74,0.21327956
2233.462,0.21320129
2234.186,0.21311269
2234.91,0.21304692
2235.634,0.21297151
2236.359,0.21285511
2237.084,0.21278189
2237.809,0.21283815
2238.536,0.21296851
2239.262,0.21306839
2239.989,0.2130953
2240.717,0.21301772
2241.445,0.21283122
2242.173,0.21265923
2242.902,0.21263808
2243.631,0.21271707
2244.361,0.21276034
2245.092,0.21276438
2245.822,0.21278528
2246.554,0.21278426
2247.285,0.21273811
2248.017,0.2127434
2248.75,0.21285496
2249.483,0.21300912
2250.217,0.21318949
2250.951,0.21344806
2251.686,0.21373412
2252.421,0.21393642
2253.156,0.21408802
2253.892,0.21429149
2254.628,0.21450817
2255.365,0.21464971
2256.103,0.21477129
2256.841,0.21496444
2257.579,0.21519303
2258.318,0.21539723
2259.057,0.21559854
2259.797,0.215782
2260.537,0.2158616
2261.278,0.21584976
2262.019,0.21588308
2262.761,0.21601772
2263.503,0.21616218
2264.246,0.21623422
2264.989,0.21624589
2265.732,0.21623832
2266.477,0.21624988
2267.221,0.21632412
2267.966,0.21646568
2268.712,0.21661652
2269.458,0.21672685
2270.204,0.21680709
2270.951,0.21688214
2271.699,0.21694818
2272.447,0.2169938
2273.195,0.21701925
2273.944,0.21702205
2274.694,0.21699974
2275.444,0.21698389
2276.194,0.21704244
2276.945,0.21721813
2277.696,0.21745899
2278.448,0.21764959
2279.201,0.21773878
2279.954,0.21779625
2280.707,0.21790655
2281.461,0.2180535
2282.215,0.21814886
2282.97,0.21813939
2283.725,0.21804168
2284.481,0.2179042
2285.237,0.21778116
2285.994,0.21773047
2286.752,0.21778225
2287.509,0.21790968
2288.268,0.21804517
2289.026,0.21811626
2289.786,0.21808268
2290.545,0.2179803
2291.306,0.21791701
2292.067,0.21798401
2292.828,0.21816099
2293.59,0.21833649
2294.352,0.21842764
2295.115,0.21844565
2295.878,0.21843319
2296.642,0.21839562
2297.406,0.218326
2298.171,0.21824511
2298.936,0.21817634
2299.702,0.21812213
2300.468,0.21810336
2301.235,0.21816412
2302.002,0.2182997
2302.77,0.21843165
2303.539,0.21848405
2304.307,0.21843613
2305.077,0.21829946
2305.847,0.21811337
2306.617,0.21796092
2307.388,0.21790608
2308.159,0.21790402
2308.931,0.21784215
2309.703,0.21766984
2310.476,0.2174325
2311.25,0.21720392
2312.024,0.2170465
2312.798,0.21701147
2313.573,0.21710241
2314.348,0.21725484
2315.124,0.21738006
2315.901,0.21741956
2316.678,0.21735683
2317.455,0.21722221
2318.234,0.21709379
2319.012,0.21705054
2319.791,0.21710281
2320.571,0.21719463
2321.351,0.21728156
2322.131,0.21739045
2322.913,0.21758646
2323.694,0.217893
2324.476,0.21826946
2325.259,0.21865732
2326.042,0.21901323
2326.826,0.21929906
2327.61,0.21949504
2328.395,0.21963451
2329.18,0.21978496
2329.966,0.21999399
2330.753,0.22027393
2331.54,0.22061389
2332.327,0.22096652
2333.115,0.22127603
2333.903,0.22154704
2334.692,0.22182546
2335.482,0.22209872
2336.272,0.22230648
2337.062,0.22246107
2337.854,0.22264908
2338.645,0.22291847
2339.437,0.22325654
2340.23,0.22364171
2341.023,0.22402315
2341.817,0.22431933
2342.611,0.22452807
2343.406,0.22474926
2344.201,0.22503051
2344.997,0.22531017
2345.794,0.22555411
2346.591,0.22580563
2347.388,0.22608167
2348.186,0.22636805
2348.985,0.22670095
2349.784,0.22710854
2350.583,0.22752072
2351.384,0.22785799
2352.184,0.22813442
2352.986,0.22837305
2353.787,0.22854821
2354.59,0.22868399
2355.393,0.22885745
2356.196,0.22905808
2357.0,0.22919448
2357.804,0.22925871
2358.609,0.22932768
2359.415,0.22942226
2360.221,0.22949932
2361.028,0.2295414
2361.835,0.22954392
2362.643,0.22948857
2363.451,0.229409
2364.26,0.22938214
2365.069,0.22941348
2365.879,0.22942676
2366.69,0.22938588
2367.501,0.22932743
2368.312,0.22928535
2369.125,0.22925941
2369.937,0.22923305
2370.751,0.22917838
2371.564,0.22909442
2372.379,0.22904158
2373.194,0.22907445
2374.009,0.22916683
2374.825,0.22926887
2375.642,0.22938314
2376.459,0.22951075
2377.276,0.22961195
2378.095,0.22968171
2378.913,0.22977275
2379.733,0.22990744
2380.553,0.23006187
2381.373,0.23023024
2382.194,0.23040463
2383.016,0.23053462
2383.838,0.23062305
2384.661,0.23077545
2385.484,0.23104537
2386.308,0.23133508
2387.132,0.23154895
2387.957,0.23171702
2388.783,0.23188897
2389.609,0.23205023
2390.435,0.23221481
2391.263,0.23244512
2392.09,0.23272251
2392.919,0.23294959
2393.748,0.23311821
2394.577,0.23332747
2395.407,0.23361013
2396.238,0.23388958
2397.069,0.23412329
2397.901,0.23433626
2398.733,0.23452594
2399.566,0.23467806
2400.399,0.23485771
2401.233,0.235136
2402.068,0.23546329
2402.903,0.2357467
2403.739,0.23600663
2404.575,0.23631218
2405.412,0.23662372
2406.25,0.23685245
2407.088,0.23701435
2407.926,0.23717896
2408.766,0.2373389
2409.606,0.23746994
2410.446,0.23763049
2411.287,0.23786559
2412.128,0.23810621
2412.971,0.23829184
2413.813,0.23848491
2414.657,0.23875109
2415.5,0.23904259
2416.345,0.23930325
2417.19,0.23956236
2418.036,0.23983281
2418.882,0.24005232
2419.729,0.24020246
2420.576,0.24034679
2421.424,0.24049998
2422.272,0.24059859
2423.122,0.24064734
2423.971,0.24074745
2424.822,0.24093877
2425.673,0.24113874
2426.524,0.24128659
2427.376,0.24142249
2428.229,0.24158757
2429.082,0.24175653
2429.936,0.24190685
2430.791,0.24205815
2431.646,0.24220922
2432.501,0.24232252
2433.358,0.24240468
2434.214,0.24250807
2435.072,0.2426329
2435.93,0.24272969
2436.789,0.24280711
2437.648,0.24292273
2438.508,0.24306691
2439.368,0.2431964
2440.229,0.24336085
2441.091,0.24364357
2441.953,0.24399422
2442.816,0.24428382
2443.679,0.24449156
2444.543,0.24467431
2445.408,0.24482328
2446.273,0.24491713
2447.139,0.24503474
2448.006,0.24525127
2448.873,0.24550992
2449.74,0.24571515
2450.609,0.24585825
2451.478,0.24596993
2452.347,0.24607075
2453.217,0.24620737
2454.088,0.24642285
2454.959,0.24668363
2455.831,0.24693837
2456.704,0.24718709
2457.577,0.24740617
2458.451,0.24750431
2459.325,0.24745283
2460.2,0.24735129
2461.076,0.24732468
2461.952,0.24745133
2462.829,0.24776588
2463.707,0.24820063
2464.585,0.24857465
2465.464,0.2487578
2466.343,0.24877662
2467.223,0.24872166
2468.104,0.24868186
2468.985,0.24877019
2469.867,0.2490207
2470.749,0.24928927
2471.632,0.24944076
2472.516,0.24954506
2473.4,0.24970386
2474.285,0.24986482
2475.171,0.24997714
2476.057,0.25010244
2476.944,0.25023257
2477.832,0.25025741
2478.72,0.25021224
2479.608,0.25026833
2480.498,0.25044283
2481.388,0.250612
2482.278,0.25077571
2483.17,0.25100008
2484.062,0.25120589
2484.954,0.25131256
2485.847,0.25142658
2486.741,0.25163346
2487.636,0.25183313
2488.531,0.25196396
2489.427,0.25211792
2490.323,0.25229003
2491.22,0.25233408
2492.118,0.25226688
2493.016,0.25228841
2493.915,0.25244931
2494.814,0.25261457
2495.715,0.25273854
2496.615,0.25287906
2497.517,0.25301261
2498.419,0.25310419
2499.322,0.25323151
2500.225,0.25341807
2501.129,0.25352829
2502.034,0.25351706
2502.939,0.25355402
2503.845,0.25373064
2504.752,0.25391126
2505.659,0.25400951
2506.567,0.25412872
2507.476,0.25431132
2508.385,0.25445187
2509.295,0.25453713
2510.206,0.25468184
2511.117,0.25488659
2512.029,0.25505069
2512.942,0.25521141
2513.855,0.25547659
2514.769,0.25577852
2515.683,0.25599697
2516.598,0.25619192
2517.514,0.25642737
2518.431,0.25656396
2519.348,0.25654112
2520.266,0.25658382
2521.184,0.25683023
2522.103,0.25707245
2523.023,0.257139
2523.944,0.25715705
2524.865,0.25720033
2525.787,0.2571403
2526.709,0.25705173
2527.632,0.25721774
2528.556,0.2576156
2529.48,0.25793484
2530.406,0.25813989
2531.331,0.25842951
2532.258,0.25871537
2533.185,0.25878487
2534.113,0.25882346
2535.041,0.25907483
2535.971,0.2592902
2536.9,0.25917674
2537.831,0.25901365
2538.762,0.25914718
2539.694,0.25941826
2540.627,0.25959409
2541.56,0.25981724
2542.494,0.26013993
2543.428,0.26024374
2544.364,0.26009827
2545.3,0.26013958
2546.236,0.26045106
2547.174,0.26058928
2548.112,0.26046986
2549.05,0.26056175
2549.99,0.2609575
2550.93,0.26116843
2551.87,0.26103861
2552.812,0.26093271
2553.754,0.26086364
2554.697,0.26049696
2555.64,0.26004904
2556.585,0.26009601
2557.529,0.26063263
2558.475,0.26119986
2559.421,0.26183894
2560.368,0.26285071
2561.316,0.2637095
2562.264,0.26353154
2563.213,0.26269579
2564.163,0.26216336
2565.113,0.26192928
2566.065,0.2616762
2567.016,0.2618227
2567.969,0.26260111
2568.922,0.26320025
2569.876,0.26303098
2570.831,0.2628829
2571.786,0.26330935
2572.742,0.26356416
2573.699,0.26320778
2574.656,0.26304916
2575.615,0.26327583
2576.573,0.26296942
2577.533,0.26218529
2578.493,0.26211274
2579.454,0.26285755
2580.416,0.26346617
2581.378,0.26394778
2582.342,0.26499146
2583.305,0.26592908
2584.27,0.26565578
2585.235,0.26507675
2586.201,0.26537958
2587.168,0.26579098
2588.135,0.2652365
2589.103,0.26458411
2590.072,0.26483749
2591.042,0.26566615
2592.012,0.26691864
2592.983,0.26938187
2593.955,0.27227825
2594.927,0.27238625
2595.9,0.26938617
2596.874,0.26672828
2597.849,0.26560131
2598.824,0.26511492
2599.8,0.26512215
2600.777,0.26604137
2601.755,0.26728314
2602.733,0.2678702
2603.712,0.26814435
2604.692,0.26873259
2605.672,0.26892735
2606.653,0.2681846
2607.635,0.26743571
2608.618,0.26720926
2609.601,0.26683294
2610.585,0.26608554
2611.57,0.26574178
2612.556,0.26616648
2613.542,0.26693925
2614.529,0.2678727
2615.517,0.26905948
2616.505,0.27005959
2617.495,0.2703304
2618.485,0.2701449
2619.475,0.26988267
2620.467,0.26923117
2621.459,0.26810657
2622.452,0.26721591
2623.446,0.26711874
2624.44,0.26762945
2625.435,0.2683043
2626.431,0.26893786
2627.428,0.26955102
2628.426,0.27017053
2629.424,0.27069257
2630.423,0.27084553
2631.423,0.27042371
2632.423,0.26961898
2633.424,0.26882701
2634.426,0.26825774
2635.429,0.26788506
2636.432,0.26764354
2637.437,0.26752951
2638.442,0.26757006
2639.447,0.26772718
2640.454,0.26786153
2641.461,0.267901
2642.469,0.26798224
2643.478,0.26825673
2644.488,0.26861379
2645.498,0.26881557
2646.509,0.26878711
2647.521,0.26861465
2648.534,0.26842867
2649.547,0.26843352
2650.561,0.26877697
2651.576,0.26928815
2652.592,0.26962265
2653.609,0.26967965
2654.626,0.26954814
2655.644,0.26925616
2656.663,0.26896514
2657.682,0.26898007
2658.703,0.26925152
2659.724,0.26933925
2660.746,0.26920731
2661.768,0.26943905
2662.792,0.27039688
2663.816,0.27184895
2664.841,0.27332893
2665.867,0.27427504
2666.894,0.274318
2667.921,0.27388887
2668.949,0.27364367
2669.978,0.27307035
2671.008,0.27094338
2672.038,0.26764593
2673.07,0.26498831
2674.102,0.26371062
2675.135,0.26306643
2676.168,0.26185051
2677.203,0.25904461
2678.238,0.25420532
2679.274,0.24812845
2680.311,0.24241224
2681.349,0.23791689
2682.387,0.23430039
2683.426,0.2308741
2684.467,0.22735187
2685.507,0.2236064
2686.549,0.21939888
2687.591,0.21483451
2688.635,0.21050826
2689.679,0.20693319
2690.724,0.20432476
2691.769,0.2027979
2692.816,0.20211246
2693.863,0.20116856
2694.911,0.19861818
2695.96,0.19448066
2697.01,0.1900573
2698.06,0.18635309
2699.112,0.18364153
2700.164,0.18173835
2701.217,0.18002337
2702.27,0.17779217
2703.325,0.17500964
2704.38,0.17228582
2705.437,0.1701736
2706.494,0.16899546
2707.552,0.16902256
2708.61,0.17012339
2709.67,0.17112018
2710.73,0.17026423
2711.791,0.16701135
2712.853,0.16251579
2713.916,0.15808281
2714.98,0.15454129
2716.044,0.15267948
2717.109,0.15314775
2718.175,0.1558457
2719.242,0.15962761
2720.31,0.16261184
2721.379,0.16338794
2722.448,0.1621789
2723.518,0.16012365
2724.589,0.15774847
2725.661,0.15475739
2726.734,0.1511247
2727.808,0.14764817
2728.882,0.14510593
2729.958,0.14354321
2731.034,0.1425865
2732.111,0.14203661
2733.188,0.14173282
2734.267,0.14117865
2735.347,0.14002544
2736.427,0.13879035
2737.508,0.13828644
2738.59,0.13864409
2739.673,0.13926301
2740.757,0.13941374
2741.841,0.13870807
2742.927,0.13732637
2744.013,0.1358844
2745.1,0.13498552
2746.188,0.13471276
2747.277,0.1346762
2748.367,0.13465672
2749.457,0.1348164
2750.549,0.13517483
2751.641,0.13552178
2752.734,0.13591195
2753.828,0.13655389
2754.923,0.13712204
2756.019,0.13701271
2757.115,0.1365239
2758.213,0.13639014
2759.311,0.13659396
2760.41,0.13678212
2761.51,0.1369765
2762.611,0.1372736
2763.713,0.13739006
2764.816,0.13717669
2765.919,0.13706907
2767.024,0.13734447
2768.129,0.13772018
2769.235,0.13795516
2770.342,0.13821268
2771.45,0.13853816
2772.559,0.13871809
2773.669,0.13883593
2774.779,0.13921028
2775.891,0.13977109
2777.003,0.14015246
2778.116,0.14030179
2779.23,0.14046181
2780.345,0.14062832
2781.461,0.14061826
2782.578,0.14054789
2783.696,0.14066201
2784.814,0.14086097
2785.934,0.14090334
2787.054,0.14089954
2788.175,0.1411433
2789.297,0.14153713
2790.42,0.14172749
2791.544,0.14164903
2792.669,0.14146212
2793.795,0.14124938
2794.922,0.1410474
2796.049,0.14098418
2797.178,0.14111771
2798.307,0.14125359
2799.437,0.141141
2800.568,0.14074178
2801.7,0.14015722
2802.833,0.1394961
2803.967,0.13900746
2805.102,0.13904094
2806.238,0.13957961
2807.374,0.14017802
2808.512,0.14050627
2809.65,0.14064986
2810.789,0.14079462
2811.93,0.14088735
2813.071,0.14081239
2814.213,0.14066459
2815.356,0.14058957
2816.5,0.14054318
2817.645,0.14041529
2818.791,0.14021958
2819.937,0.14002868
2821.085,0.13990512
2822.233,0.13995455
2823.383,0.14025022
2824.533,0.14066985
2825.685,0.14099003
2826.837,0.14111978
2827.99,0.1411242
2829.144,0.14107099
2830.299,0.14098646
2831.455,0.14090875
2832.612,0.14085531
2833.77,0.14076951
2834.929,0.14059632
2836.089,0.14038984
2837.25,0.1402984
2838.411,0.14043029
2839.574,0.14073006
2840.737,0.1410153
2841.902,0.14116959
2843.067,0.14123381
2844.234,0.1412811
2845.401,0.14131389
2846.569,0.1413422
2847.739,0.14143116
2848.909,0.1415728
2850.08,0.14166024
2851.252,0.14166641
2852.425,0.14166707
2853.599,0.14164933
2854.774,0.14152859
2855.95,0.14137887
2857.127,0.1414009
2858.305,0.14164973
2859.484,0.1420215
2860.664,0.14242733
2861.844,0.14277696
2863.026,0.14290564
2864.209,0.1427475
2865.392,0.14247567
2866.577,0.14228622
2867.763,0.14217763
2868.949,0.14208809
2870.137,0.14207239
2871.325,0.14218089
2872.515,0.14233689
2873.705,0.14246705
2874.897,0.14260829
2876.089,0.14278311
2877.283,0.14292235
2878.477,0.14298491
2879.673,0.14301825
2880.869,0.14303619
2882.066,0.14297546
2883.265,0.14282811
2884.464,0.14271202
2885.664,0.14274907
2886.866,0.14295878
2888.068,0.14328134
2889.271,0.14361004
2890.476,0.14378733
2891.681,0.14368529
2892.887,0.14335644
2894.095,0.14301988
2895.303,0.14282405
2896.512,0.14270567
2897.723,0.14254425
2898.934,0.14234896
2900.146,0.14220699
2901.36,0.1421443
2902.574,0.14213731
2903.789,0.14218506
2905.006,0.14226862
2906.223,0.14232144
2907.441,0.14231917
2908.661,0.1423143
2909.881,0.14233925
2911.103,0.1423826
2912.325,0.1424914
2913.549,0.14277203
2914.773,0.14322888
2915.999,0.14369461
2917.225,0.14396156
2918.453,0.14391024
2919.681,0.1435256
2920.911,0.14292221
2922.142,0.14234709
2923.373,0.14202742
2924.606,0.14198788
2925.84,0.14208056
2927.075,0.14216685
2928.31,0.14219473
2929.547,0.1421354
2930.785,0.14198149
2932.024,0.14181452
2933.264,0.14177231
2934.505,0.14191658
2935.747,0.14217443
2936.99,0.14240787
2938.234,0.14251487
2939.479,0.14247288
2940.726,0.14234951
2941.973,0.14228921
2943.221,0.14245249
2944.471,0.14293232
2945.721,0.14367289
2946.973,0.14442703
2948.225,0.14483889
2949.479,0.14471228
2950.733,0.14424485
2951.989,0.14389188
2953.246,0.14393273
2954.504,0.1442327
2955.763,0.14444001
2957.023,0.14433987
2958.284,0.1439964
2959.546,0.14364929
2960.809,0.14351471
2962.073,0.14363623
2963.339,0.1439064
2964.605,0.14421594
2965.873,0.14451044
2967.141,0.14471905
2968.411,0.14477583
2969.681,0.14477089
2970.953,0.14495913
2972.226,0.14553135
2973.5,0.14641324
2974.775,0.14729648
2976.051,0.1478081
2977.328,0.1477138
2978.607,0.14711492
2979.886,0.14643475
2981.167,0.14607535
2982.448,0.14609533
2983.731,0.14627602
2985.015,0.14642056
2986.3,0.14650341
2987.586,0.14663354
2988.873,0.14697093
2990.161,0.14757118
2991.45,0.14823693
2992.74,0.14863757
2994.032,0.14865101
2995.324,0.14848808
2996.618,0.14843148
2997.913,0.14858309
2999.209,0.14891019
3000.506,0.14936274
3001.804,0.14983193
3003.103,0.15013402
3004.404,0.15017213
3005.705,0.1500395
3007.008,0.14989064
3008.312,0.14981302
3009.616,0.14987885
3010.922,0.15017805
3012.23,0.1506932
3013.538,0.15124046
3014.847,0.15162881
3016.158,0.15179764
3017.469,0.15176969
3018.782,0.15161619
3020.096,0.15149958
3021.411,0.15157552
3022.727,0.15180837
3024.044,0.1520411
3025.363,0.15226088
3026.683,0.15263652
3028.003,0.15329847
3029.325,0.15423114
3030.648,0.15530616
3031.972,0.15624729
3033.298,0.15667211
3034.624,0.15641585
3035.952,0.15577429
3037.281,0.15524501
3038.611,0.15509874
3039.942,0.15532341
3041.274,0.15581523
3042.607,0.15642758
3043.942,0.15694672
3045.278,0.15722108
3046.615,0.15727622
3047.953,0.15722093
3049.292,0.15712414
3050.632,0.15704231
3051.974,0.15704912
3053.317,0.15716308
3054.661,0.15732381
3056.006,0.15748415
3057.352,0.15766957
3058.7,0.15793952
3060.048,0.15834296
3061.398,0.15890819
3062.749,0.15959415
3064.101,0.1602301
3065.455,0.1605719
3066.809,0.16049341
3068.165,0.16011988
3069.522,0.15972906
3070.88,0.15952311
3072.239,0.15954047
3073.6,0.15975472
3074.962,0.16013881
3076.325,0.16061448
3077.689,0.16105554
3079.054,0.16137637
3080.421,0.16155783
3081.788,0.16162235
3083.157,0.16168477
3084.527,0.16194474
3085.899,0.16246636
3087.271,0.16301853
3088.645,0.16329114
3090.02,0.16322988
3091.396,0.1630288
3092.774,0.16287437
3094.153,0.162854
3095.532,0.16303081
3096.914,0.16343687
3098.296,0.16401312
3099.679,0.16463681
3101.064,0.1651532
3102.45,0.16537751
3103.837,0.16521557
3105.226,0.16482793
3106.616,0.16453708
3108.007,0.1645246
3109.399,0.16473606
3110.792,0.16506671
3112.187,0.16547849
3113.583,0.16592596
3114.98,0.16632917
3116.378,0.16665208
3117.778,0.16690378
3119.179,0.16707171
3120.581,0.16715397
3121.985,0.16723728
3123.389,0.16743921
3124.795,0.16777734
3126.202,0.16815698
3127.611,0.16847172
3129.02,0.1686803
3130.431,0.1688142
3131.844,0.16895278
3133.257,0.16916822
3134.672,0.16946393
3136.088,0.16977929
3137.505,0.17005918
3138.924,0.17030169
3140.344,0.17054469
3141.765,0.17082178
3143.187,0.17113765
3144.611,0.17148543
3146.036,0.17187648
3147.462,0.17231872
3148.89,0.17276324
3150.319,0.17312498
3151.749,0.17338028
3153.18,0.17360345
3154.613,0.17387212
3156.047,0.17419375
3157.482,0.17453719
3158.919,0.17487737
3160.357,0.17519419
3161.796,0.17549032
3163.236,0.1758092
3164.678,0.17617444
3166.121,0.17652597
3167.566,0.17678998
3169.011,0.17698262
3170.458,0.17717643
3171.907,0.17740675
3173.356,0.1776939
3174.807,0.17811489
3176.26,0.17877158
3177.713,0.17968434
3179.168,0.1807265
3180.624,0.18163105
3182.082,0.18210348
3183.541,0.18204429
3185.001,0.18167837
3186.463,0.18138408
3187.926,0.18139232
3189.39,0.18171489
3190.856,0.18228257
3192.323,0.18299137
3193.791,0.18364224
3195.26,0.18400906
3196.731,0.18403427
3198.204,0.18389958
3199.677,0.18387597
3201.152,0.18411927
3202.629,0.18457046
3204.106,0.18501958
3205.585,0.18529903
3207.066,0.18545626
3208.548,0.18573928
3210.031,0.18640172
3211.515,0.18751778
3213.001,0.18893744
3214.488,0.19034766
3215.977,0.19137607
3217.467,0.19174121
3218.958,0.19141729
3220.451,0.19069784
3221.945,0.19005728
3223.441,0.18986639
3224.938,0.19015212
3226.436,0.19061157
3227.936,0.1908958
3229.437,0.19092246
3230.939,0.19090783
3232.443,0.19109771
3233.948,0.19150697
3235.455,0.19194612
3236.963,0.19224228
3238.472,0.1923946
3239.983,0.1925591
3241.495,0.19291772
3243.008,0.19351654
3244.523,0.19421447
3246.04,0.19483664
3247.558,0.19537736
3249.077,0.19597409
3250.598,0.19670218
3252.12,0.19751075
3253.643,0.19833808
3255.168,0.19912397
3256.694,0.1997103
3258.222,0.19989152
3259.751,0.1996158
3261.282,0.19905995
3262.814,0.19852864
3264.347,0.19833609
3265.882,0.19866889
3267.418,0.19942576
3268.956,0.2002498
3270.495,0.2008074
3272.036,0.20100537
3273.578,0.20094766
3275.122,0.20082427
3276.667,0.20086197
3278.213,0.20119979
3279.761,0.20175273
3281.31,0.20232331
3282.861,0.20284256
3284.413,0.20336626
3285.967,0.20387931
3287.522,0.20429549
3289.079,0.20464049
3290.637,0.20507239
3292.196,0.20571154
3293.757,0.20652791
3295.32,0.20734285
3296.884,0.20788044
3298.449,0.20794578
3300.016,0.20766612
3301.585,0.20745629
3303.155,0.20763536
3304.726,0.2081437
3306.299,0.2086773
3307.873,0.20899987
3309.449,0.20909539
3311.026,0.20912314
3312.605,0.20927346
3314.185,0.20960871
3315.767,0.21001974
3317.351,0.21036538
3318.936,0.2106416
3320.522,0.21098674
3322.11,0.21156134
3323.699,0.21244624
3325.29,0.21358832
3326.882,0.21477661
3328.476,0.21569704
3330.072,0.21607936
3331.669,0.21585826
3333.267,0.21523681
3334.867,0.21458043
3336.469,0.21418275
3338.072,0.2141108
3339.676,0.21428161
3341.282,0.21462609
3342.89,0.21510397
3344.499,0.21563533
3346.11,0.2161486
3347.722,0.21667303
3349.336,0.21725488
3350.952,0.21780396
3352.569,0.21813562
3354.187,0.21816187
3355.807,0.21797722
3357.429,0.21780455
3359.052,0.21789873
3360.677,0.21839461
3362.303,0.21916091
3363.931,0.21987743
3365.56,0.22030929
3367.191,0.22044904
3368.824,0.22041444
3370.458,0.22033124
3372.093,0.2203035
3373.731,0.22034971
3375.37,0.22038172
3377.01,0.22035429
3378.652,0.22038134
3380.296,0.22058639
3381.941,0.2209301
3383.588,0.22130589
3385.236,0.22169287
3386.886,0.22208574
3388.538,0.22240786
3390.191,0.22263833
3391.846,0.22291311
3393.502,0.22336852
3395.16,0.22397105
3396.82,0.2245865
3398.481,0.22513813
3400.144,0.22564762
3401.809,0.22618689
3403.475,0.22679985
3405.143,0.22738499
3406.812,0.22769295
3408.483,0.22755172
3410.156,0.22709106
3411.83,0.22664224
3413.506,0.22644555
3415.183,0.2265303
3416.862,0.22683767
3418.543,0.22733661
3420.226,0.22800988
3421.91,0.22879388
3423.596,0.22956247
3425.283,0.23017056
3426.972,0.2305553
3428.663,0.2308099
3430.355,0.23112388
3432.049,0.23162387
3433.745,0.23231594
3435.442,0.23317731
3437.141,0.23422985
3438.842,0.23546283
3440.545,0.23671072
3442.249,0.23766484
3443.954,0.23804975
3445.662,0.23782416
3447.371,0.23725119
3449.082,0.23674962
3450.794,0.23661093
3452.509,0.2368294
3454.224,0.23721029
3455.942,0.23759414
3457.661,0.23795911
3459.382,0.23836707
3461.105,0.23887058
3462.829,0.23943794
3464.556,0.23993228
3466.283,0.24021704
3468.013,0.24030809
3469.744,0.24036009
3471.477,0.2404962
3473.212,0.24072721
3474.948,0.24102254
3476.686,0.24135021
3478.426,0.24165129
3480.168,0.24188026
3481.911,0.24207754
3483.656,0.2423521
3485.403,0.24283347
3487.152,0.2436359
3488.902,0.24472451
3490.654,0.24577813
3492.408,0.24637034
3494.164,0.24637735
3495.921,0.24607752
3497.68,0.24581855
3499.441,0.24575285
3501.204,0.24590037
3502.968,0.24625581
3504.734,0.24676008
3506.502,0.24731607
3508.272,0.24786988
3510.043,0.24839808
3511.817,0.24886167
3513.592,0.24926552
3515.368,0.24968596
3517.147,0.25016472
3518.927,0.25066763
3520.71,0.25117678
3522.494,0.25169231
3524.28,0.25213734
3526.067,0.25244361
3527.857,0.25275851
3529.648,0.2533704
3531.441,0.25435657
3533.236,0.25543351
3535.032,0.2562045
3536.831,0.2564725
3538.631,0.2563299
3540.433,0.25604417
3542.237,0.25586579
3544.043,0.25588553
3545.851,0.25606055
3547.66,0.25634011
3549.471,0.25670171
3551.284,0.25708603
3553.099,0.25740631
3554.916,0.25764331
3556.735,0.25786046
3558.555,0.25811172
3560.378,0.25839824
3562.202,0.25871723
3564.028,0.25910221
3565.856,0.25959785
3567.686,0.26020513
3569.518,0.26083942
3571.351,0.26135369
3573.187,0.2616519
3575.024,0.26178511
3576.863,0.26191518
3578.704,0.26219357
3580.547,0.26268517
3582.392,0.26334208
3584.239,0.2639926
3586.088,0.26442592
3587.938,0.26457534
3589.791,0.26460393
3591.645,0.26475614
3593.501,0.26514351
3595.359,0.26568099
3597.22,0.26616128
3599.082,0.26639024
3600.946,0.26634348
3602.811,0.26620816
3604.679,0.26620327
3606.549,0.26637995
3608.421,0.26668082
3610.294,0.26711654
3612.17,0.26772867
3614.047,0.26842605
3615.926,0.26900821
3617.808,0.26934341
3619.691,0.26943809
3621.576,0.26939414
3623.463,0.26937116
3625.353,0.26950146
3627.244,0.26977206
3629.137,0.27006151
3631.032,0.2703196
3632.929,0.27060361
3634.828,0.27094572
3636.729,0.2713116
3638.632,0.27168676
3640.537,0.27208279
3642.444,0.27248721
3644.353,0.27290623
3646.263,0.27340358
3648.176,0.27398866
3650.091,0.27453499
3652.008,0.27489599
3653.927,0.27505095
3655.848,0.27509474
3657.771,0.27516024
3659.696,0.27536083
3661.623,0.27572048
3663.552,0.27614502
3665.483,0.27651646
3667.416,0.27680025
3669.351,0.27703695
3671.288,0.27728221
3673.227,0.27759504
3675.168,0.27802194
3677.111,0.27855292
3679.057,0.27912091
3681.004,0.27964613
3682.953,0.28005682
3684.905,0.28030889
3686.858,0.28042913
3688.814,0.2805133
3690.771,0.28064723
3692.731,0.28086056
3694.693,0.2811499
3696.656,0.28149199
3698.622,0.28184147
3700.59,0.28216352
3702.56,0.28245756
3704.532,0.28272912
3706.507,0.28297076
3708.483,0.28319187
3710.461,0.28342491
3712.442,0.28369294
3714.425,0.28400316
3716.409,0.28436552
3718.396,0.2847761
3720.385,0.28519476
3722.376,0.2855708
3724.37,0.28589644
3726.365,0.2862169
3728.362,0.28658182
3730.362,0.2869822
3732.364,0.28736448
3734.368,0.28772099
3736.374,0.28813333
3738.382,0.28867771
3740.392,0.28933134
3742.405,0.29000156
3744.419,0.2905935
3746.436,0.29102974
3748.455,0.29129241
3750.476,0.29145931
3752.499,0.2916167
3754.525,0.29175657
3756.553,0.29186618
3758.582,0.29202238
3760.614,0.29228447
3762.649,0.29259226
3764.685,0.29289858
3766.724,0.29326047
3768.764,0.29369236
3770.807,0.29409426
3772.853,0.2944183
3774.9,0.29471291
3776.95,0.294977
3779.001,0.29517736
3781.056,0.2953989
3783.112,0.29574011
3785.17,0.29612428
3787.231,0.29643197
3789.294,0.29670648
3791.359,0.29701664
3793.427,0.29729319
3795.496,0.29749215
3797.568,0.29772159
3799.643,0.29804208
3801.719,0.29836666
3803.798,0.29866164
3805.879,0.2990065
3807.962,0.29938597
3810.048,0.29968776
3812.135,0.29992132
3814.225,0.30020006
3816.318,0.30053969
3818.412,0.30088791
3820.509,0.30127002
3822.609,0.30170408
3824.71,0.30208696
3826.814,0.30234385
3828.92,0.3025659
3831.029,0.30286625
3833.139,0.30324179
3835.252,0.30366794
3837.368,0.30417236
3839.486,0.30474033
3841.606,0.30528092
3843.728,0.30573213
3845.853,0.30610857
3847.98,0.30644319
3850.109,0.30676833
3852.241,0.30713219
3854.375,0.30755469
3856.512,0.30799108
3858.65,0.30838488
3860.792,0.30873709
3862.935,0.30909192
3865.081,0.30948262
3867.229,0.30990502
3869.38,0.31033265
3871.533,0.31074298
3873.689,0.31113177
3875.846,0.31150562
3878.007,0.31187866
3880.169,0.31227661
3882.334,0.31271306
3884.502,0.31314984
3886.672,0.31353218
3888.844,0.31386538
3891.019,0.3142169
3893.196,0.31462956
3895.375,0.31508204
3897.557,0.31552973
3899.742,0.31592752
3901.929,0.31622251
3904.118,0.31640747
3906.31,0.31658463
3908.504,0.31688629
3910.7,0.31732384
3912.9,0.31778965
3915.101,0.31820385
3917.305,0.31857478
3919.512,0.31893034
3921.721,0.31928363
3923.932,0.31965133
3926.146,0.32001647
3928.363,0.3203022
3930.581,0.32048692
3932.803,0.32068898
3935.027,0.32103764
3937.253,0.3215186
3939.482,0.32204568
3941.714,0.32258023
3943.948,0.32309208
3946.184,0.32351811
3948.423,0.32386632
3950.665,0.32423782
3952.909,0.32468361
3955.156,0.32516522
3957.405,0.32569344
3959.657,0.32633388
3961.911,0.32706512
3964.168,0.32778774
3966.427,0.32847336
3968.689,0.32915484
3970.954,0.32982051
3973.221,0.33045509
3975.491,0.3311124
3977.763,0.33180927
3980.038,0.33244489
3982.315,0.33293024
3984.595,0.33330528
3986.878,0.33366265
3989.163,0.33406535
3991.451,0.33455516
3993.742,0.33512799
3996.035,0.33569779
3998.33,0.3361979
4000.629,0.33667575
4002.93,0.33719499
4005.233,0.33772791
4007.54,0.33821978
4009.849,0.3386641
4012.16,0.33906232
4014.475,0.33942147
4016.791,0.33981203
4019.111,0.34030976
4021.433,0.34087975
4023.758,0.34141222
4026.086,0.34185518
4028.416,0.34223597
4030.749,0.34261011
4033.085,0.34305175
4035.423,0.34361862
4037.764,0.34426436
4040.108,0.34487424
4042.454,0.34542376
4044.804,0.34600724
4047.155,0.34668507
4049.51,0.34741253
4051.867,0.34813112
4054.228,0.34883383
4056.59,0.34950929
4058.956,0.3501289
4061.324,0.35071611
4063.695,0.35134459
4066.069,0.35202656
4068.446,0.35269141
4070.825,0.35330729
4073.207,0.35392893
4075.592,0.3545819
4077.98,0.35522649
4080.371,0.35587736
4082.764,0.35662064
4085.16,0.35745117
4087.559,0.35825009
4089.961,0.35897529
4092.365,0.35970698
4094.773,0.36047759
4097.183,0.36124165
4099.596,0.36201487
4102.012,0.36282684
4104.43,0.3635886
4106.852,0.36422242
4109.276,0.36484196
4111.703,0.36558616
4114.133,0.36641046
4116.566,0.36723131
4119.002,0.36808725
4121.441,0.36897484
4123.882,0.36976651
4126.327,0.37044513
4128.774,0.37116449
4131.224,0.37198186
4133.677,0.37280166
4136.133,0.37362171
4138.592,0.37454403
4141.054,0.3755538
4143.519,0.37654544
4145.987,0.3775135
4148.457,0.37849112
4150.931,0.3794359
4153.407,0.38033647
4155.887,0.38126475
4158.369,0.3822266
4160.854,0.38314993
4163.343,0.38404484
4165.834,0.3849685
4168.328,0.38588384
4170.826,0.3867513
4173.326,0.38763801
4175.829,0.38857678
4178.335,0.38951758
4180.844,0.39050377
4183.356,0.39164269
4185.872,0.39288011
4188.39,0.39411076
4190.911,0.39546175
4193.435,0.39718117
4195.963,0.3993984
4198.493,0.40226855
4201.026,0.4060752
4203.563,0.41088539
4206.102,0.41640292
4208.645,0.42242607
4211.19,0.4290215
4213.739,0.43600465
4216.291,0.44282943
4218.846,0.44928027
4221.404,0.45558222
4223.965,0.46165329
4226.529,0.46711846
4229.096,0.47205711
4231.666,0.47664795
4234.24,0.48033434
4236.816,0.48247669
4239.396,0.48338043
4241.979,0.48345921
4244.565,0.48210178
4247.154,0.47835289
4249.746,0.47222928
4252.341,0.46497337
4254.94,0.45869322
4257.542,0.45569189
4260.146,0.45738381
4262.754,0.46333895
4265.366,0.4712493
4267.98,0.47825602
4270.598,0.48274004
4273.219,0.4847609
4275.843,0.48526066
4278.47,0.48538054
4281.1,0.48590345
4283.734,0.48689666
4286.371,0.48805119
4289.011,0.48917288
4291.655,0.49003162
4294.301,0.49025933
4296.951,0.48987366
4299.604,0.48946345
4302.261,0.48941381
4304.92,0.48938809
4307.583,0.48884887
4310.25,0.48770395
4312.919,0.48618185
4315.592,0.48452297
4318.268,0.48302894
4320.948,0.48200988
4323.631,0.48145259
4326.317,0.48101615
4329.006,0.48045861
4331.699,0.47980011
4334.395,0.47907861
4337.095,0.47830001
4339.797,0.4776533
4342.504,0.47741935
4345.213,0.47763671
4347.926,0.47813746
4350.642,0.47882535
4353.362,0.47963847
4356.085,0.48040597
4358.811,0.48105501
4361.541,0.48178345
4364.275,0.48276348
4367.011,0.4839039
4369.751,0.48508963
4372.495,0.4863277
4375.242,0.48754573
4377.992,0.488649
4380.746,0.48982605
4383.504,0.49136232
4386.264,0.49316966
4389.029,0.49494277
4391.796,0.49664312
4394.567,0.49835111
4397.342,0.49992314
4400.12,0.50130747
4402.902,0.50282421
4405.687,0.50465731
4408.476,0.50650962
4411.268,0.50815951
4414.064,0.50977783
4416.863,0.51141759
4419.666,0.51286994
4422.472,0.51420826
4425.282,0.51573212
4428.096,0.51731973
4430.913,0.51862615
4433.734,0.51981957
4436.558,0.52129501
4439.386,0.5228932
4442.217,0.52419725
4445.052,0.52528043
4447.891,0.52640375
4450.733,0.52746441
4453.579,0.52837939
4456.428,0.52945736
4459.281,0.53081466
4462.138,0.53204657
4464.998,0.53292922
4467.863,0.53380229
4470.73,0.53491465
4473.602,0.53607077
4476.477,0.53711442
4479.355,0.53814737
4482.238,0.53914326
4485.124,0.53994589
4488.014,0.54064745
4490.908,0.54149841
4493.805,0.54249901
4496.706,0.54346178
4499.611,0.54436338
4502.519,0.54532083
4505.431,0.54633064
4508.347,0.54725564
4511.267,0.54802923
4514.191,0.54873115
4517.118,0.54947472
4520.049,0.55025649
4522.984,0.5510069
4525.923,0.55176279
4528.865,0.55261857
4531.812,0.5534877
4534.762,0.55419561
4537.716,0.55483418
4540.674,0.55563985
4543.635,0.55655945
4546.601,0.5573601
4549.57,0.55812951
4552.543,0.55912067
4555.521,0.56025249
4558.502,0.56128896
4561.487,0.56231847
4564.475,0.56342902
4567.468,0.56425526
4570.465,0.56453786
4573.465,0.56478992
4576.47,0.5655665
4579.478,0.56661162
4582.491,0.56750044
4585.507,0.56835795
4588.527,0.56928446
4591.551,0.56994343
4594.58,0.57033053
4597.612,0.57105355
4600.648,0.57230294
4603.688,0.57347238
4606.732,0.57419369
4609.781,0.57480323
4612.833,0.57545885
4615.889,0.57589105
4618.949,0.57622931
4622.014,0.57699875
4625.082,0.57806279
4628.155,0.57876501
4631.231,0.57916146
4634.312,0.57994586
4637.397,0.58109404
4640.485,0.58199167
4643.578,0.58269082
4646.675,0.58365696
4649.777,0.58469839
4652.882,0.58531285
4655.991,0.58581027
4659.105,0.58685864
4662.223,0.58825833
4665.345,0.58945764
4668.471,0.59070824
4671.601,0.59242698
4674.735,0.59421086
4677.874,0.59557339
4681.017,0.59676452
4684.164,0.597882
4687.315,0.59839603
4690.471,0.59840567
4693.63,0.59901491
4696.794,0.600678
4699.962,0.60257176
4703.135,0.60410368
4706.312,0.60561222
4709.493,0.60719544
4712.678,0.60838395
4715.868,0.60924022
4719.062,0.61036781
4722.26,0.61178077
4725.463,0.61301907
4728.669,0.61415628
4731.881,0.61551325
4735.096,0.61682173
4738.316,0.61768788
4741.541,0.61837027
4744.769,0.61927621
4748.002,0.62032898
4751.24,0.62138536
4754.482,0.62260879
4757.728,0.62400616
4760.979,0.62526919
4764.234,0.62630449
4767.494,0.62734768
4770.758,0.62847619
4774.026,0.62956743
4777.299,0.63063111
4780.577,0.63176214
4783.859,0.63290282
4787.145,0.63394786
4790.436,0.63487337
4793.732,0.63567299
4797.032,0.63637425
4800.336,0.63711077
4803.645,0.63797508
4806.959,0.6389244
4810.277,0.63999494
4813.6,0.64131213
4816.927,0.64269962
4820.259,0.64368911
4823.596,0.64411207
4826.937,0.64429014
4830.283,0.64457301
4833.633,0.64513338
4836.988,0.64610585
4840.348,0.64741993
4843.712,0.6486742
4847.081,0.64965586
4850.455,0.6506766
4853.833,0.65196733
4857.216,0.65319411
4860.604,0.6540271
4863.996,0.65471454
4867.393,0.65557896
4870.795,0.65640328
4874.202,0.65686568
4877.613,0.65718407
4881.03,0.65778109
4884.451,0.65871477
4887.876,0.65990236
4891.307,0.66139382
4894.742,0.66301287
4898.182,0.66425387
4901.627,0.66499231
4905.077,0.66577433
4908.532,0.66683851
4911.991,0.66764017
4915.456,0.66791592
4918.925,0.66827916
4922.399,0.6691956
4925.878,0.67037988
4929.362,0.67158965
4932.851,0.67292195
4936.345,0.67410058
4939.844,0.67468081
4943.347,0.67511085
4946.856,0.67629253
4950.37,0.67809909
4953.888,0.6795678
4957.412,0.68038046
4960.941,0.68095936
4964.474,0.68146948
4968.013,0.68190172
4971.556,0.68265336
4975.105,0.683936
4978.659,0.68508903
4982.218,0.68553996
4985.782,0.6858351
4989.351,0.68666288
4992.925,0.68774138
4996.504,0.68860629
5000.088,0.68949611
5003.678,0.69066703
5007.272,0.69191616
5010.872,0.69329686
5014.477,0.69518432
5018.087,0.69721644
5021.703,0.69838589
5025.323,0.69847713
5028.949,0.69830005
5032.58,0.69839776
5036.216,0.69865948
5039.857,0.6990851
5043.504,0.69986215
5047.156,0.70078792
5050.813,0.70149969
5054.475,0.70210682
5058.143,0.7028927
5061.816,0.7037156
5065.495,0.70435756
5069.179,0.70510958
5072.868,0.70639724
5076.562,0.70809253
5080.262,0.70964444
5083.967,0.71067446
5087.678,0.71116968
5091.394,0.71133432
5095.115,0.71150988
5098.842,0.71202928
5102.574,0.71294613
5106.312,0.7139877
5110.055,0.71485184
5113.804,0.71548987
5117.558,0.71606476
5121.318,0.71670529
5125.083,0.71741194
5128.854,0.71827397
5132.63,0.71963582
5136.412,0.72178688
5140.199,0.72445726
5143.992,0.72685205
5147.791,0.72824842
5151.595,0.72845575
5155.405,0.72785136
5159.22,0.727226
5163.041,0.72736621
5166.868,0.72840273
5170.7,0.72972691
5174.538,0.73081685
5178.382,0.73181563
5182.231,0.73305927
5186.086,0.73461215
5189.947,0.73655353
5193.814,0.73903425
5197.686,0.74174745
5201.564,0.7440859
5205.448,0.74598326
5209.338,0.74767432
5213.233,0.7486721
5217.134,0.7482857
5221.041,0.74716767
5224.954,0.74689296
5228.873,0.74800914
5232.798,0.74970977
5236.728,0.75121265
5240.665,0.75233157
5244.607,0.75297504
5248.555,0.75322916
5252.51,0.75367702
5256.47,0.75470699
5260.436,0.75597475
5264.408,0.75720976
5268.386,0.7587336
5272.37,0.76058791
5276.36,0.76223882
5280.356,0.76366754
5284.358,0.76550491
5288.367,0.76760324
5292.381,0.76882865
5296.401,0.76877946
5300.428,0.7683724
5304.46,0.76837445
5308.499,0.76870309
5312.544,0.76928449
5316.595,0.77028878
5320.652,0.77142822
5324.715,0.77216985
5328.785,0.77274546
5332.86,0.7740733
5336.942,0.77674939
5341.031,0.78064158
5345.125,0.78494371
5349.226,0.78806149
5353.333,0.7883864
5357.446,0.78610835
5361.566,0.78337878
5365.692,0.78205041
5369.824,0.78216933
5373.962,0.78281631
5378.107,0.78346993
5382.259,0.78406024
5386.417,0.78449728
5390.581,0.78482773
5394.751,0.78540877
5398.928,0.78649331
5403.112,0.78816542
5407.302,0.7908241
5411.498,0.79488776
5415.701,0.79952964
5419.911,0.80252801
5424.127,0.802315
5428.349,0.79973236
5432.579,0.79688744
5436.814,0.79518062
5441.057,0.79504172
5445.305,0.79643216
5449.561,0.79901716
5453.823,0.80249713
5458.092,0.80684841
5462.368,0.81156185
5466.65,0.81508905
5470.939,0.81642879
5475.234,0.81662885
5479.537,0.81698723
5483.846,0.81697372
5488.162,0.81578213
5492.484,0.81439199
5496.814,0.8141523
5501.15,0.81525921
5505.493,0.81812797
5509.843,0.82382913
5514.2,0.83180235
5518.564,0.83948359
5522.934,0.84499876
5527.312,0.84828216
5531.696,0.85023519
5536.087,0.85304611
5540.486,0.85794882
5544.891,0.85822667
5549.303,0.84145887
5553.723,0.79962807
5558.149,0.75652054
5562.582,0.70936849
5567.023,0.67969947
5571.47,0.6693905
5575.925,0.66269567
5580.387,0.6799799
5584.856,0.71098896
5589.332,0.73331453
5593.815,0.74529649
5598.305,0.75462258
5602.803,0.76164364
5607.307,0.76372028
5611.819,0.76629726
5616.339,0.77323847
5620.865,0.77963583
5625.399,0.78159374
5629.94,0.78390141
5634.489,0.78943301
5639.044,0.7932829
5643.607,0.79244653
5648.178,0.7920113
5652.756,0.79405341
5657.341,0.79460834
5661.934,0.79339717
5666.534,0.7951434
5671.142,0.79968367
5675.757,0.80176782
5680.379,0.80106488
5685.01,0.80217451
5689.647,0.80492088
5694.293,0.80563006
5698.945,0.80596548
5703.606,0.81004104
5708.274,0.81568975
5712.949,0.81753605
5717.633,0.8169281
5722.324,0.81826724
5727.022,0.82037587
5731.729,0.82028331
5736.443,0.82034974
5741.165,0.82305841
5745.894,0.82554101
5750.631,0.82583782
5755.377,0.82823856
5760.13,0.83476909
5764.89,0.8394889
5769.659,0.83818094
5774.436,0.83563834
5779.22,0.83493069
5784.012,0.8328998
5788.813,0.82923635
5793.621,0.82862819
5798.437,0.83188798
5803.262,0.83500184
5808.094,0.83798126
5812.934,0.84442268
5817.782,0.85189321
5822.639,0.85341113
5827.503,0.85007554
5832.376,0.84807426
5837.257,0.84742735
5842.146,0.84567514
5847.043,0.84582028
5851.948,0.85036114
5856.862,0.85514475
5861.783,0.85647596
5866.714,0.85848374
5871.652,0.86404028
5876.598,0.86847772
5881.553,0.86830327
5886.517,0.86756656
5891.488,0.86754413
5896.468,0.86437858
5901.457,0.85930188
5906.454,0.85806196
5911.459,0.86043194
5916.473,0.86214373
5921.495,0.86399611
5926.526,0.86949202
5931.565,0.87542548
5936.613,0.87538558
5941.67,0.87157336
5946.735,0.86965118
5951.809,0.86908016
5956.891,0.8680162
5961.982,0.8686982
5967.082,0.87185529
5972.19,0.87370431
5977.307,0.87305269
5982.433,0.87348445
5987.568,0.87510134
5992.711,0.87409153
5997.864,0.87134648
6003.025,0.87122441
6008.195,0.87294182
6013.374,0.87219516
6018.562,0.86982964
6023.759,0.87017926
6028.964,0.87374606
6034.179,0.8783309
6039.403,0.88349448
6044.636,0.88801128
6049.878,0.8883364
6055.129,0.88534053
6060.389,0.88445373
6065.658,0.8864247
6070.936,0.88678992
6076.224,0.8838144
6081.52,0.88095967
6086.826,0.88042288
6092.141,0.88155333
6097.466,0.88447379
6102.8,0.88923435
6108.143,0.89263092
6113.495,0.89163917
6118.857,0.88853556
6124.228,0.88686019
6129.609,0.88667933
6134.999,0.887155
6140.398,0.88887378
6145.807,0.89148861
6151.226,0.89289552
6156.654,0.89266754
6162.091,0.89273603
6167.539,0.89386681
6172.996,0.89499578
6178.462,0.89568937
6183.938,0.89618487
6189.424,0.89591699
6194.92,0.89474338
6200.425,0.89411054
6205.94,0.89483127
6211.465,0.89578153
6217.0,0.89604081
6222.544,0.89644138
6228.099,0.89747134
6233.663,0.89806332
6239.237,0.89766109
6244.822,0.89735192
6250.416,0.89782141
6256.02,0.89848951
6261.635,0.89917147
6267.259,0.90046921
6272.893,0.90196783
6278.538,0.90245558
6284.193,0.90206449
6289.858,0.90207753
6295.533,0.90265454
6301.218,0.9030794
6306.914,0.90361328
6312.619,0.90492282
6318.336,0.90650851
6324.062,0.90785025
6329.799,0.90958227
6335.546,0.91162948
6341.304,0.91225091
6347.072,0.91141634
6352.851,0.91172533
6358.64,0.91399866
6364.44,0.91582854
6370.25,0.91562721
6376.071,0.91470983
6381.903,0.91429231
6387.745,0.91449941
6393.598,0.91643104
6399.461,0.92098194
6405.335,0.92551726
6411.221,0.92611554
6417.116,0.92379087
6423.023,0.92187882
6428.941,0.92042565
6434.869,0.91884704
6440.809,0.9185975
6446.759,0.91998601
6452.72,0.92102498
6458.693,0.92154921
6464.676,0.92388337
6470.671,0.92799308
6476.676,0.93079484
6482.693,0.93122286
6488.721,0.93092351
6494.76,0.92989993
6500.81,0.92773787
6506.872,0.92671101
6512.945,0.92805417
6519.029,0.92930376
6525.124,0.92870656
6531.231,0.92842256
6537.35,0.92989743
6543.48,0.93134771
6549.621,0.93200722
6555.774,0.93364364
6561.938,0.9360954
6568.114,0.93692154
6574.302,0.93646503
6580.501,0.93695776
6586.712,0.9376564
6592.934,0.93681851
6599.169,0.93602786
6605.415,0.93742391
6611.673,0.93999839
6617.943,0.94199641
6624.224,0.94369428
6630.518,0.94469475
6636.823,0.94304294
6643.141,0.93990656
6649.47,0.93896709
6655.812,0.94060131
6662.166,0.94212793
6668.532,0.94236275
6674.91,0.94239911
6681.3,0.94249378
6687.702,0.94228672
6694.117,0.94296802
6700.544,0.94526271
6706.983,0.94716458
6713.435,0.94684236
6719.899,0.94566831
6726.375,0.94531775
6732.864,0.94522528
6739.365,0.94494809
6745.879,0.94553918
6752.406,0.94720361
6758.945,0.94866067
6765.497,0.94966186
6772.062,0.95105254
6778.639,0.95215877
6785.229,0.95144557
6791.832,0.94979343
6798.448,0.94928216
6805.076,0.94988273
6811.718,0.95040731
6818.372,0.95092327
6825.039,0.95192098
6831.72,0.95292278
6838.413,0.95380221
6845.12,0.95538771
6851.84,0.95728024
6858.573,0.95746106
6865.319,0.95576432
6872.078,0.95441835
6878.851,0.95429815
6885.637,0.95448484
6892.437,0.95477424
6899.25,0.95561275
6906.076,0.95632682
6912.916,0.95606323
6919.769,0.95568517
6926.636,0.95629176
6933.517,0.95736572
6940.411,0.95809921
6947.319,0.95884407
6954.241,0.95971059
6961.176,0.95986364
6968.125,0.95945341
6975.089,0.95968504
6982.066,0.9605325
6989.057,0.96090031
6996.062,0.96084619
7003.081,0.96132112
7010.114,0.96221765
7017.161,0.96289897
7024.223,0.9637438
7031.298,0.96513311
7038.388,0.96613788
7045.492,0.96606037
7052.611,0.96575447
7059.743,0.96588437
7066.891,0.96594562
7074.052,0.96575719
7081.229,0.96594958
7088.419,0.96659117
7095.625,0.96705641
7102.845,0.96734042
7110.079,0.96794849
7117.329,0.96874117
7124.593,0.96928144
7131.872,0.96979147
7139.166,0.97059868
7146.475,0.97131337
7153.799,0.97148406
7161.137,0.97137994
7168.491,0.97146341
7175.86,0.97176108
7183.244,0.97215609
7190.643,0.97265068
7198.058,0.9731505
7205.487,0.97343662
7212.933,0.97347852
7220.393,0.97351433
7227.869,0.97376953
7235.36,0.97422751
7242.867,0.97472756
7250.39,0.97523903
7257.928,0.97584308
7265.481,0.97641456
7273.051,0.97670447
7280.636,0.97682421
7288.237,0.97712765
7295.854,0.97759891
7303.487,0.97798475
7311.135,0.97841061
7318.8,0.97912077
7326.481,0.97981449
7334.178,0.98005552
7341.891,0.98004057
7349.62,0.98015853
7357.366,0.98036179
7365.128,0.98059138
7372.906,0.98109951
7380.701,0.98183425
7388.512,0.98236281
7396.34,0.98267468
7404.184,0.983189
7412.045,0.98387214
7419.922,0.9843351
7427.817,0.98463685
7435.728,0.98509893
7443.656,0.98563194
7451.601,0.98602452
7459.562,0.98639549
7467.541,0.98680153
7475.537,0.98701094
7483.55,0.98703935
7491.58,0.98719417
7499.628,0.98750194
7507.692,0.98775258
7515.774,0.98798754
7523.874,0.98834635
7531.99,0.98871446
7540.125,0.98900199
7548.277,0.98933963
7556.446,0.98972673
7564.633,0.98998467
7572.838,0.99014035
7581.061,0.99032075
7589.302,0.99042989
7597.56,0.99040932
7605.837,0.99048474
7614.131,0.99072498
7622.444,0.99087376
7630.774,0.99087525
7639.123,0.99097929
7647.491,0.99121008
7655.876,0.99138753
7664.28,0.99159904
7672.702,0.99200496
7681.143,0.99241799
7689.602,0.99264039
7698.08,0.99283681
7706.577,0.9931176
7715.093,0.99328283
7723.627,0.99330795
7732.18,0.99348802
7740.752,0.99387943
7749.343,0.99423679
7757.953,0.99452726
7766.583,0.99492326
7775.231,0.99535107
7783.899,0.99563239
7792.586,0.99587679
7801.292,0.99626465
7810.018,0.99670604
7818.764,0.99708578
7827.529,0.9975082
7836.313,0.99802326
7845.117,0.99847032
7853.942,0.99878818
7862.786,0.99913274
7871.649,0.99959646
7880.533,0.0100009417
7889.437,0.0100057166
7898.361,0.0100103987
7907.305,0.0100145156
7916.27,0.0100175275
7925.254,0.0100202637
7934.26,0.0100237683
7943.285,0.0100277964
7952.331,0.0100316646
7961.398,0.0100358197
7970.485,0.010040949
7979.594,0.0100464647
7988.723,0.010051103
7997.872,0.0100546311
8007.043,0.0100576183
8016.235,0.0100603927
8025.448,0.0100630165
8034.682,0.0100658975
8043.937,0.0100692034
8053.214,0.0100725414
8062.512,0.0100757061
8071.832,0.0100787966
8081.173,0.0100814164
8090.535,0.0100831502
8099.92,0.0100849857
8109.326,0.0100882967
8118.754,0.0100926691
8128.204,0.0100966994
8137.676,0.0101001427
8147.169,0.010103367
8156.686,0.0101059603
8166.224,0.0101080009
8175.785,0.0101108678
8185.368,0.0101149938
8194.973,0.01011901
8204.601,0.0101221392
8214.252,0.0101250703
8223.925,0.0101278633
8233.621,0.0101298671
8243.34,0.0101318206
8253.082,0.0101351032
8262.847,0.0101393422
8272.635,0.0101431812
8282.446,0.0101466205
8292.281,0.0101502787
8302.139,0.010153858
8312.02,0.0101570598
8321.925,0.0101604468
8331.853,0.0101640516
8341.805,0.0101670529
8351.781,0.0101694391
8361.781,0.0101723587
8371.804,0.0101762697
8381.852,0.0101802819
8391.924,0.0101834367
8402.02,0.0101858398
8412.14,0.0101881392
8422.285,0.0101906096
8432.454,0.0101930129
8442.648,0.0101953006
8452.866,0.0101977215
8463.109,0.0102001846
8473.377,0.0102023386
8483.67,0.0102045233
8493.988,0.0102071319
8504.331,0.0102094363
8514.699,0.0102107214
8525.092,0.0102119557
8535.511,0.0102140556
8545.955,0.0102160283
8556.425,0.0102171305
8566.921,0.0102186971
8577.442,0.0102214262
8587.989,0.0102237687
8598.562,0.0102248566
8609.161,0.010225858
8619.786,0.0102271374
8630.437,0.0102279779
8641.115,0.0102290991
8651.819,0.0102316725
8662.55,0.0102344798
8673.307,0.010236047
8684.091,0.010237552
8694.902,0.0102401543
8705.739,0.0102427268
8716.604,0.0102446215
8727.496,0.0102469636
8738.415,0.010249639
8749.361,0.0102513222
8760.335,0.0102526533
8771.336,0.0102551802
8782.365,0.0102582386
8793.422,0.0102607418
8804.507,0.0102634644
8815.619,0.0102666136
8826.76,0.010269072
8837.928,0.0102715231
8849.125,0.0102755728
8860.351,0.0102797573
8871.604,0.0102817481
8882.887,0.0102829286
8894.198,0.0102856307
8905.538,0.0102888493
8916.907,0.0102913777
8928.305,0.0102944143
8939.732,0.0102976181
8951.188,0.0102984273
8962.673,0.0102975712
8974.189,0.0102982081
8985.733,0.0102998654
8997.308,0.0102998565
9008.912,0.0102992747
9020.546,0.0103001878
9032.21,0.0103007289
9043.905,0.0102990542
9055.629,0.0102975682
9067.384,0.0102977394
9079.17,0.0102972784
9090.986,0.0102955259
9102.833,0.010294951
9114.711,0.0102950013
9126.62,0.0102924167
9138.56,0.0102875969
9150.531,0.0102837162
9162.534,0.0102806751
9174.568,0.0102768083
9186.634,0.0102733868
9198.731,0.0102719661
9210.86,0.0102706858
9223.022,0.0102680282
9235.215,0.0102657127
9247.441,0.0102648757
9259.699,0.0102638549
9271.99,0.0102619434
9284.313,0.010260584
9296.669,0.0102602209
9309.058,0.0102596871
9321.48,0.0102588912
9333.935,0.0102586861
9346.423,0.0102588096
9358.945,0.0102584099
9371.5,0.0102579365
9384.089,0.0102583251
9396.712,0.0102595672
9409.369,0.010261074
9422.06,0.010262705
9434.785,0.010264385
9447.545,0.0102657777
9460.339,0.0102667735
9473.167,0.0102679414
9486.031,0.0102696637
9498.929,0.010271527
9511.863,0.0102729977
9524.832,0.0102743796
9537.836,0.0102762874
9550.876,0.0102787456
9563.951,0.0102813821
9577.062,0.0102841023
9590.209,0.0102865923
9603.393,0.0102882809
9616.612,0.0102893272
9629.868,0.0102905978
9643.16,0.0102923303
9656.49,0.0102942202
9669.856,0.0102964946
9683.259,0.0102993914
9696.699,0.010301974
9710.176,0.0103033527
9723.691,0.0103039458
9737.244,0.0103043802
9750.834,0.0103042813
9764.463,0.0103035255
9778.129,0.0103026686
9791.834,0.0103015999
9805.577,0.0102996412
9819.359,0.0102975056
9833.18,0.0102963443
9847.039,0.010295724
9860.938,0.0102946127
9874.875,0.0102936143
9888.853,0.0102936217
9902.869,0.0102938862
9916.926,0.0102933668
9931.022,0.0102926517
9945.159,0.0102924642
9959.336,0.0102924226
9973.553,0.0102924019
9987.811,0.0102933477
10002.109,0.0102953685
10016.449,0.0102971689
10030.83,0.0102979129
10045.252,0.0102981089
10059.715,0.0102980639
10074.221,0.0102974986
10088.768,0.0102968219
10103.357,0.0102971455
10117.988,0.0102984599
10132.662,0.0102995971
10147.378,0.0103001762
10162.137,0.0103010731
10176.939,0.0103026827
10191.784,0.0103045472
10206.672,0.0103067542
10221.604,0.0103099604
10236.58,0.010313651
10251.6,0.0103165801
10266.663,0.0103188672
10281.771,0.0103215708
10296.924,0.010324331
10312.121,0.0103261465
10327.363,0.0103274523
10342.65,0.0103291524
10357.982,0.0103305142
10373.36,0.0103308017
10388.784,0.0103310182
10404.253,0.0103319438
10419.769,0.0103325249
10435.331,0.0103321374
10450.939,0.0103315843
10466.594,0.010330891
10482.296,0.0103292489
10498.045,0.0103274778
10513.842,0.0103271068
10529.686,0.0103277491
10545.577,0.0103284777
10561.517,0.0103299865
10577.505,0.0103324375
10593.542,0.0103341632
10609.627,0.0103346369
10625.761,0.0103352508
10641.944,0.0103358813
10658.176,0.0103351263
10674.458,0.0103336951
10690.79,0.0103332032
10707.172,0.0103328978
10723.604,0.0103321001
10740.086,0.0103324813
10756.619,0.0103344508
10773.203,0.0103354708
10789.839,0.0103350707
10806.525,0.0103354998
10823.264,0.0103367042
10840.054,0.0103368394
10856.896,0.0103373325
10873.791,0.0103402746
10890.738,0.0103435056
10907.738,0.0103446378
10924.791,0.0103459102
10941.898,0.0103488633
10959.058,0.0103508129
10976.272,0.0103508665
10993.541,0.0103520465
11010.863,0.0103544618
11028.24,0.0103550911
11045.672,0.0103545571
11063.16,0.0103556402
11080.702,0.0103567783
11098.301,0.0103557266
11115.955,0.0103551313
11133.665,0.0103570094
11151.432,0.0103578468
11169.256,0.0103555318
11187.137,0.0103531423
11205.075,0.01035194
11223.07,0.0103492116
11241.124,0.0103451975
11259.235,0.0103429131
11277.405,0.0103418066
11295.634,0.0103396928
11313.921,0.0103382126
11332.268,0.0103388331
11350.675,0.0103385796
11369.141,0.0103355388
11387.667,0.0103326588
11406.254,0.0103317485
11424.901,0.0103307823
11443.61,0.0103290054
11462.38,0.0103280381
11481.211,0.0103273638
11500.105,0.0103251148
11519.06,0.0103221597
11538.079,0.0103202801
11557.16,0.0103186529
11576.304,0.010316384
11595.511,0.010314884
11614.783,0.0103149206
11634.118,0.010314725
11653.518,0.0103132457
11672.983,0.0103118636
11692.513,0.0103117221
11712.108,0.0103120624
11731.769,0.0103123289
11751.496,0.0103130464
11771.29,0.0103143419
11791.15,0.0103152408
11811.077,0.0103155819
11831.072,0.010316501
11851.134,0.0103185605
11871.265,0.0103204653
11891.464,0.0103214644
11911.731,0.0103225948
11932.068,0.0103242932
11952.475,0.0103250038
11972.951,0.0103244856
11993.497,0.01032472
12014.114,0.0103262624
12034.802,0.01032715
12055.562,0.010327581
12076.393,0.0103297346
12097.296,0.01033277
12118.271,0.0103334857
12139.32,0.0103323449
12160.441,0.0103317961
12181.636,0.0103309112
12202.905,0.0103281562
12224.249,0.0103263348
12245.667,0.0103273884
12267.16,0.0103280028
12288.729,0.0103260101
12310.373,0.0103246845
12332.094,0.0103254908
12353.892,0.0103247546
12375.767,0.0103212586
12397.719,0.0103185544
12419.75,0.0103174578
12441.859,0.0103154586
12464.046,0.0103134557
12486.313,0.0103142585
12508.659,0.0103158868
12531.086,0.0103148375
12553.593,0.0103124286
12576.18,0.0103114007
12598.85,0.0103105149
12621.601,0.01030839
12644.434,0.010307186
12667.35,0.0103082417
12690.349,0.0103088517
12713.432,0.0103075949
12736.599,0.0103068603
12759.85,0.0103080134
12783.187,0.0103090683
12806.608,0.0103091146
12830.116,0.0103096611
12853.71,0.0103109518
12877.391,0.0103112823
12901.159,0.0103108086
12925.016,0.0103115111
12948.96,0.0103134745
12972.993,0.0103149507
12997.116,0.0103161313
13021.329,0.0103184968
13045.631,0.0103215035
13070.025,0.0103234003
13094.51,0.0103245572
13119.087,0.0103259148
13143.756,0.0103265325
13168.518,0.0103260247
13193.373,0.0103267554
13218.322,0.0103295448
13243.366,0.0103317869
13268.505,0.0103322773
13293.74,0.0103331859
13319.07,0.0103347798
13344.497,0.0103350788
13370.021,0.0103349005
13395.644,0.0103365019
13421.364,0.0103378149
13447.183,0.0103362865
13473.102,0.0103342518
13499.121,0.0103337092
13525.24,0.0103314721
13551.461,0.0103268044
13577.783,0.0103240517
13604.208,0.0103235363
13630.736,0.0103205324
13657.367,0.0103164406
13684.103,0.0103161703
13710.943,0.0103162969
13737.889,0.0103102674
13764.941,0.0103023225
13792.099,0.0102992408
13819.365,0.0102975786
13846.739,0.010293353
13874.221,0.0102921074
13901.813,0.0102954677
13929.515,0.0102953512
13957.327,0.0102903969
13985.25,0.0102894531
14013.285,0.0102921202
14041.433,0.0102896196
14069.694,0.010284723
14098.068,0.0102864988
14126.558,0.0102895786
14155.163,0.0102847256
14183.883,0.0102784002
14212.721,0.0102786251
14241.676,0.0102774409
14270.749,0.0102699319
14299.94,0.0102672633
14329.252,0.0102737737
14358.684,0.010276699
14388.237,0.0102723913
14417.911,0.0102713794
14447.709,0.010273218
14477.629,0.0102670777
14507.674,0.0102581938
14537.844,0.0102590793
14568.139,0.0102643027
14598.561,0.0102622713
14629.109,0.0102595444
14659.786,0.0102633377
14690.592,0.0102642441
14721.528,0.0102564823
14752.594,0.0102522468
14783.791,0.0102548156
14815.121,0.0102517058
14846.583,0.0102397769
14878.179,0.0102303901
14909.91,0.0102238907
14941.777,0.0102143289
14973.78,0.0102063966
15005.92,0.0102086265
15038.198,0.0102109398
15070.616,0.0102052493
15103.173,0.0101934487
15135.871,0.0101806896
15168.712,0.0101611703
15201.695,0.0101378053
15234.821,0.0101083412
15268.092,0.0100741516
15301.509,0.010033317
15335.072,0.99936668
15368.783,0.99382203
15402.642,0.98724503
15436.651,0.97994443
15470.81,0.97349998
15505.12,0.96389329
15539.583,0.95323
15574.199,0.94316987
15608.97,0.93572064
15643.896,0.92249083
15678.979,0.90787558
15714.22,0.89256958
15749.619,0.88010454
15785.178,0.86198201
15820.897,0.84342355
15856.779,0.82731943
15892.824,0.8152296
15929.033,0.79328447
15965.407,0.7656282
