Database of Origin,University of Winnipeg Spectrophotometer Facility
Sample Description,"HOSERLab master pyroxenes, FTIR data"
Date Added,2016-12-14 03:34:49.733552

Data ID,FTIR_PYX_08         
Sample ID,PYX042
Mineral Name,Orthopyroxene
Grain Size,45-90 um
Viewing Geometry,"i=30, e=0"
Material Class,Inosilicate

Wavelength
2000.56,0.26919233
2001.142,0.26938008
2001.725,0.26960697
2002.307,0.26988322
2002.891,0.27020969
2003.474,0.27065916
2004.058,0.27124165
2004.643,0.27178726
2005.227,0.27213296
2005.812,0.2723237
2006.397,0.27248944
2006.983,0.27268378
2007.569,0.27295003
2008.155,0.27335377
2008.742,0.2738358
2009.329,0.2742371
2009.916,0.27452715
2010.504,0.27482855
2011.092,0.27520178
2011.68,0.27560574
2012.269,0.27604195
2012.858,0.27655284
2013.447,0.27710143
2014.037,0.27760234
2014.627,0.27801772
2015.217,0.27834191
2015.808,0.2785841
2016.399,0.27882483
2016.99,0.27917944
2017.582,0.27968081
2018.174,0.28026889
2018.766,0.28087116
2019.359,0.28140157
2019.952,0.28175329
2020.546,0.28188663
2021.139,0.28190191
2021.733,0.28196252
2022.328,0.28218416
2022.923,0.28258498
2023.518,0.28309683
2024.113,0.28362793
2024.709,0.2841518
2025.305,0.28470471
2025.902,0.28529959
2026.499,0.28587922
2027.096,0.28635514
2027.693,0.28665889
2028.291,0.28681498
2028.89,0.28697848
2029.488,0.28732079
2030.087,0.28784752
2030.686,0.28841345
2031.286,0.28889442
2031.886,0.28927665
2032.486,0.28962476
2033.087,0.29004223
2033.688,0.29058527
2034.289,0.2911632
2034.891,0.29162576
2035.493,0.29196428
2036.096,0.29229328
2036.698,0.29267449
2037.302,0.29310673
2037.905,0.29362171
2038.509,0.29421702
2039.113,0.2947935
2039.718,0.29529235
2040.322,0.29577001
2040.928,0.29624369
2041.533,0.29665282
2042.139,0.29703013
2042.746,0.29749964
2043.352,0.2980558
2043.959,0.29857273
2044.567,0.29902932
2045.174,0.29951526
2045.782,0.30005479
2046.391,0.30062079
2047.0,0.30122078
2047.609,0.30181908
2048.218,0.30230448
2048.828,0.30267112
2049.438,0.30307891
2050.049,0.30363857
2050.66,0.30428361
2051.271,0.30490676
2051.883,0.30546777
2052.495,0.30596031
2053.107,0.30639736
2053.72,0.3068409
2054.333,0.30734437
2054.947,0.30789891
2055.56,0.30847087
2056.175,0.30904233
2056.789,0.30960067
2057.404,0.31014925
2058.019,0.31069388
2058.635,0.31120841
2059.251,0.31166921
2059.867,0.31212275
2060.484,0.31260984
2061.101,0.31306964
2061.718,0.31343438
2062.336,0.3137601
2062.954,0.31412972
2063.573,0.31454813
2064.192,0.31503446
2064.811,0.31564824
2065.431,0.3163202
2066.051,0.31687928
2066.671,0.31731047
2067.292,0.31774968
2067.913,0.3182075
2068.534,0.31859165
2069.156,0.31896769
2069.778,0.31948737
2070.401,0.32010982
2071.024,0.32070582
2071.647,0.32132644
2072.271,0.32206493
2072.895,0.32279849
2073.519,0.32336877
2074.144,0.32384271
2074.769,0.32434693
2075.395,0.32485091
2076.02,0.32533426
2076.647,0.32590113
2077.273,0.32655082
2077.9,0.32711313
2078.528,0.32756668
2079.155,0.32811079
2079.784,0.32881886
2080.412,0.32953279
2081.041,0.33018463
2081.67,0.33089225
2082.3,0.33168463
2082.93,0.33242054
2083.56,0.33303207
2084.191,0.33357352
2084.822,0.33405822
2085.454,0.33446419
2086.085,0.33488078
2086.718,0.33544046
2087.35,0.33615946
2087.983,0.33697205
2088.617,0.33782785
2089.251,0.33863993
2089.885,0.33927753
2090.519,0.33970914
2091.154,0.34007031
2091.789,0.3405237
2092.425,0.34113651
2093.061,0.34187927
2093.697,0.34266396
2094.334,0.34338319
2094.971,0.3439745
2095.609,0.34444995
2096.247,0.34489739
2096.885,0.34546674
2097.524,0.3462683
2098.163,0.34721299
2098.803,0.34806185
2099.443,0.34869446
2100.083,0.3492031
2100.723,0.3496965
2101.364,0.3502025
2102.006,0.35076402
2102.648,0.35140837
2103.29,0.35203121
2103.932,0.35254278
2104.575,0.35305594
2105.219,0.35372532
2105.862,0.35450814
2106.506,0.35528893
2107.151,0.35606353
2107.796,0.35681723
2108.441,0.35743435
2109.087,0.35791428
2109.733,0.35843894
2110.379,0.35909148
2111.026,0.35973263
2111.673,0.36027849
2112.321,0.3608235
2112.969,0.36142826
2113.617,0.36203665
2114.266,0.36264617
2114.915,0.36331809
2115.565,0.3640117
2116.215,0.3646099
2116.865,0.36513037
2117.516,0.36573088
2118.167,0.36648755
2118.819,0.36729749
2119.471,0.36802079
2120.123,0.36862259
2120.776,0.36914719
2121.429,0.36965722
2122.082,0.37024622
2122.736,0.37101431
2123.391,0.37191523
2124.045,0.37272823
2124.7,0.37332167
2125.356,0.37383376
2126.012,0.3744378
2126.668,0.37509407
2127.325,0.37572431
2127.982,0.37641562
2128.64,0.377237
2129.297,0.37808189
2129.956,0.37888653
2130.614,0.37974118
2131.274,0.3806272
2131.933,0.38136832
2132.593,0.3819584
2133.253,0.38257658
2133.914,0.38322786
2134.575,0.38376925
2135.237,0.3842581
2135.899,0.38485838
2136.561,0.38549908
2137.224,0.38603565
2137.887,0.38659635
2138.55,0.38736301
2139.214,0.38822921
2139.879,0.389015
2140.544,0.389769
2141.209,0.39057758
2141.874,0.39136673
2142.54,0.39210687
2143.207,0.39291776
2143.873,0.3938086
2144.541,0.39462609
2145.208,0.39532608
2145.876,0.39601335
2146.545,0.39670631
2147.214,0.3973391
2147.883,0.39794255
2148.553,0.39860453
2149.223,0.39932661
2149.893,0.40006616
2150.564,0.40080386
2151.235,0.40148592
2151.907,0.40205323
2152.579,0.40257923
2153.252,0.40322906
2153.925,0.40406325
2154.598,0.40499171
2155.272,0.40589602
2155.946,0.40670049
2156.621,0.40738689
2157.296,0.40802313
2157.972,0.40871479
2158.647,0.40949792
2159.324,0.41034632
2160.001,0.4112476
2160.678,0.41216753
2161.355,0.41300381
2162.033,0.41370379
2162.712,0.41435614
2163.39,0.41505615
2164.07,0.4157662
2164.749,0.41640513
2165.429,0.41697313
2166.11,0.41750834
2166.791,0.41804058
2167.472,0.41865235
2168.154,0.41945425
2168.836,0.42042842
2169.519,0.42141862
2170.202,0.42231773
2170.885,0.42313545
2171.569,0.42388671
2172.254,0.42456011
2172.938,0.42519987
2173.624,0.42586575
2174.309,0.42653528
2174.995,0.4271854
2175.682,0.42790644
2176.368,0.42879813
2177.056,0.42981584
2177.743,0.43082966
2178.432,0.43174973
2179.12,0.43250063
2179.809,0.4330149
2180.499,0.43335831
2181.189,0.43373621
2181.879,0.43431467
2182.57,0.43512009
2183.261,0.43608919
2183.952,0.43708938
2184.644,0.43794362
2185.337,0.43860128
2186.03,0.43921091
2186.723,0.43992007
2187.417,0.44071165
2188.111,0.44151615
2188.806,0.44231716
2189.501,0.44310214
2190.196,0.44386816
2190.892,0.44467865
2191.589,0.44555346
2192.285,0.44635643
2192.983,0.44697752
2193.68,0.44752533
2194.379,0.4481649
2195.077,0.44889732
2195.776,0.44964721
2196.476,0.45041112
2197.175,0.45120053
2197.876,0.45199961
2198.577,0.45282611
2199.278,0.45366966
2199.979,0.45439336
2200.682,0.45491357
2201.384,0.45540654
2202.087,0.45611485
2202.79,0.45701853
2203.494,0.45790737
2204.199,0.45867626
2204.903,0.45936837
2205.609,0.46001798
2206.314,0.46065856
2207.02,0.46141123
2207.727,0.46238117
2208.434,0.46347901
2209.141,0.46446643
2209.849,0.46519054
2210.557,0.4656956
2211.266,0.46611396
2211.975,0.4665561
2212.685,0.4671176
2213.395,0.46785282
2214.106,0.46869011
2214.817,0.46948108
2215.528,0.47015751
2216.24,0.4707296
2216.952,0.47119959
2217.665,0.4716663
2218.379,0.4723865
2219.092,0.47346516
2219.806,0.47459974
2220.521,0.47541418
2221.236,0.47589283
2221.952,0.47623171
2222.668,0.47652082
2223.384,0.47684768
2224.101,0.47739788
2224.818,0.47818617
2225.536,0.47897968
2226.254,0.47965952
2226.973,0.48032842
2227.692,0.48101294
2228.412,0.48162464
2229.132,0.48220021
2229.853,0.48281911
2230.574,0.48338971
2231.295,0.48382959
2232.017,0.48426428
2232.74,0.4847941
2233.462,0.48534223
2234.186,0.48588303
2234.91,0.4864962
2235.634,0.4871335
2236.359,0.48769642
2237.084,0.48830574
2237.809,0.4891389
2238.536,0.49011139
2239.262,0.49101726
2239.989,0.49177921
2240.717,0.49236718
2241.445,0.49276902
2242.173,0.49315854
2242.902,0.49373737
2243.631,0.49441946
2244.361,0.49502075
2245.092,0.49560483
2245.822,0.49628234
2246.554,0.49694881
2247.285,0.49755776
2248.017,0.49828532
2248.75,0.49914242
2249.483,0.4998647
2250.217,0.50036977
2250.951,0.50084685
2251.686,0.50134478
2252.421,0.50177389
2253.156,0.50225315
2253.892,0.50293327
2254.628,0.50364534
2255.365,0.50418476
2256.103,0.50468255
2256.841,0.50530823
2257.579,0.50594537
2258.318,0.50648165
2259.057,0.50702747
2259.797,0.50761958
2260.537,0.50811779
2261.278,0.50853202
2262.019,0.5090429
2262.761,0.50964781
2263.503,0.51016299
2264.246,0.51053834
2264.989,0.51085718
2265.732,0.51112593
2266.477,0.5113378
2267.221,0.51161049
2267.966,0.51203769
2268.712,0.51254659
2269.458,0.51302287
2270.204,0.51344668
2270.951,0.51384246
2271.699,0.51424057
2272.447,0.51469883
2273.195,0.51524896
2273.944,0.51583034
2274.694,0.51635343
2275.444,0.51678742
2276.194,0.51715522
2276.945,0.517489
2277.696,0.51780573
2278.448,0.51809633
2279.201,0.51835083
2279.954,0.51859805
2280.707,0.51886939
2281.461,0.51911133
2282.215,0.51922298
2282.97,0.51919331
2283.725,0.51910592
2284.481,0.51900481
2285.237,0.51885412
2285.994,0.51866541
2286.752,0.51856258
2287.509,0.51867258
2288.268,0.51899959
2289.026,0.5194478
2289.786,0.51992719
2290.545,0.52043641
2291.306,0.52106239
2292.067,0.52190795
2292.828,0.52294772
2293.59,0.52395413
2294.352,0.52467177
2295.115,0.52507475
2295.878,0.52534085
2296.642,0.52558602
2297.406,0.52578941
2298.171,0.52594974
2298.936,0.52613035
2299.702,0.52632691
2300.468,0.52646593
2301.235,0.52652879
2302.002,0.52653213
2302.77,0.52643136
2303.539,0.52619287
2304.307,0.52589893
2305.077,0.52563373
2305.847,0.52535909
2306.617,0.52501944
2307.388,0.52466873
2308.159,0.52437682
2308.931,0.52412629
2309.703,0.5239084
2310.476,0.52381323
2311.25,0.52392872
2312.024,0.52425001
2312.798,0.52478771
2313.573,0.52565036
2314.348,0.52690681
2315.124,0.52839786
2315.901,0.52981712
2316.678,0.53098993
2317.455,0.53197511
2318.234,0.53289029
2319.012,0.53377491
2319.791,0.53462717
2320.571,0.53544131
2321.351,0.53618418
2322.131,0.53687222
2322.913,0.53765848
2323.694,0.53868621
2324.476,0.53989404
2325.259,0.54111128
2326.042,0.54226494
2326.826,0.54333467
2327.61,0.54424293
2328.395,0.54497236
2329.18,0.545658
2329.966,0.54639356
2330.753,0.547108
2331.54,0.54775852
2332.327,0.54845462
2333.115,0.5492904
2333.903,0.55020774
2334.692,0.55109178
2335.482,0.55186408
2336.272,0.55248474
2337.062,0.55297479
2337.854,0.55342724
2338.645,0.55394893
2339.437,0.55461084
2340.23,0.55542837
2341.023,0.55631762
2341.817,0.55713192
2342.611,0.5578019
2343.406,0.55836643
2344.201,0.55887396
2344.997,0.55938488
2345.794,0.55999648
2346.591,0.56069998
2347.388,0.56135255
2348.186,0.56195021
2348.985,0.56267517
2349.784,0.56351619
2350.583,0.56419441
2351.384,0.56460346
2352.184,0.56494515
2352.986,0.56533069
2353.787,0.56570627
2354.59,0.56615196
2355.393,0.56677366
2356.196,0.56738822
2357.0,0.56780026
2357.804,0.5681846
2358.609,0.568738
2359.415,0.56927988
2360.221,0.56964242
2361.028,0.57001762
2361.835,0.57052748
2362.643,0.5709384
2363.451,0.57113691
2364.26,0.571361
2365.069,0.5717299
2365.879,0.57204774
2366.69,0.57222597
2367.501,0.57239555
2368.312,0.57256131
2369.125,0.57259604
2369.937,0.57253913
2370.751,0.5725243
2371.564,0.57253484
2372.379,0.57252275
2373.194,0.57257661
2374.009,0.57274156
2374.825,0.57288257
2375.642,0.57290841
2376.459,0.57291661
2377.276,0.57301762
2378.095,0.57318418
2378.913,0.57333029
2379.733,0.57340128
2380.553,0.57338473
2381.373,0.57332807
2382.194,0.57333945
2383.016,0.57353414
2383.838,0.57396474
2384.661,0.5745471
2385.484,0.5750626
2386.308,0.57534247
2387.132,0.57544769
2387.957,0.57554526
2388.783,0.57568619
2389.609,0.57585474
2390.435,0.57612072
2391.263,0.57654495
2392.09,0.57704407
2392.919,0.57752697
2393.748,0.57803374
2394.577,0.57860222
2395.407,0.5791612
2396.238,0.57968061
2397.069,0.58023843
2397.901,0.5808288
2398.733,0.58133341
2399.566,0.58176581
2400.399,0.58229498
2401.233,0.58293877
2402.068,0.58350443
2402.903,0.58390186
2403.739,0.58426983
2404.575,0.58471419
2405.412,0.58517632
2406.25,0.58562209
2407.088,0.58610418
2407.926,0.58656732
2408.766,0.58685051
2409.606,0.58694821
2410.446,0.58703167
2411.287,0.58718165
2412.128,0.58734719
2412.971,0.58755198
2413.813,0.58786519
2414.657,0.58820115
2415.5,0.58843109
2416.345,0.58863467
2417.19,0.58896119
2418.036,0.58932988
2418.882,0.58953809
2419.729,0.58955632
2420.576,0.58946843
2421.424,0.58928971
2422.272,0.58907155
2423.122,0.58899365
2423.971,0.58913753
2424.822,0.58935715
2425.673,0.5895293
2426.524,0.58972882
2427.376,0.59001581
2428.229,0.59028086
2429.082,0.59042749
2429.936,0.59051055
2430.791,0.5906007
2431.646,0.59067996
2432.501,0.5907438
2433.358,0.59084957
2434.214,0.59099922
2435.072,0.59111073
2435.93,0.59117501
2436.789,0.59130161
2437.648,0.59153563
2438.508,0.59175823
2439.368,0.59187712
2440.229,0.59196969
2441.091,0.59213154
2441.953,0.5923314
2442.816,0.59252882
2443.679,0.59274425
2444.543,0.59291314
2445.408,0.59291523
2446.273,0.59283717
2447.139,0.59292149
2448.006,0.59319993
2448.873,0.59347394
2449.74,0.59364668
2450.609,0.59375048
2451.478,0.59374696
2452.347,0.59364333
2453.217,0.59362988
2454.088,0.59378688
2454.959,0.59390166
2455.831,0.59386359
2456.704,0.59385978
2457.577,0.59397388
2458.451,0.59401795
2459.325,0.59393594
2460.2,0.5938788
2461.076,0.59385856
2461.952,0.5938169
2462.829,0.59391586
2463.707,0.59426984
2464.585,0.59460491
2465.464,0.59465726
2466.343,0.5945707
2467.223,0.594551
2468.104,0.59457426
2468.985,0.59468904
2469.867,0.59505085
2470.749,0.59551347
2471.632,0.59575834
2472.516,0.59581997
2473.4,0.59593192
2474.285,0.59606665
2475.171,0.59614742
2476.057,0.5963436
2476.944,0.59668638
2477.832,0.596864
2478.72,0.59676349
2479.608,0.59668049
2480.498,0.59678916
2481.388,0.59697351
2482.278,0.5972201
2483.17,0.59757483
2484.062,0.59781895
2484.954,0.59776839
2485.847,0.59765194
2486.741,0.59769765
2487.636,0.59776836
2488.531,0.59776023
2489.427,0.59783003
2490.323,0.59794402
2491.22,0.59781036
2492.118,0.59743801
2493.016,0.59716252
2493.915,0.59709826
2494.814,0.59712996
2495.715,0.59727952
2496.615,0.59751978
2497.517,0.59753782
2498.419,0.59720812
2499.322,0.59690742
2500.225,0.59692596
2501.129,0.59706289
2502.034,0.59713159
2502.939,0.59725936
2503.845,0.59741005
2504.752,0.59729958
2505.659,0.59699712
2506.567,0.59691039
2507.476,0.59704931
2508.385,0.59705364
2509.295,0.59693637
2510.206,0.59703115
2511.117,0.59726646
2512.029,0.59730308
2512.942,0.59723599
2513.855,0.59735791
2514.769,0.59747652
2515.683,0.59729927
2516.598,0.59708773
2517.514,0.59714471
2518.431,0.59719184
2519.348,0.5970428
2520.266,0.59713981
2521.184,0.59766578
2522.103,0.5980003
2523.023,0.59778897
2523.944,0.59753753
2524.865,0.59751276
2525.787,0.59728116
2526.709,0.59688509
2527.632,0.5970023
2528.556,0.59757991
2529.48,0.59778267
2530.406,0.59753233
2531.331,0.59754523
2532.258,0.59783158
2533.185,0.59780269
2534.113,0.59768632
2535.041,0.59804721
2535.971,0.59846522
2536.9,0.59834086
2537.831,0.59823917
2538.762,0.59873627
2539.694,0.59911696
2540.627,0.59864328
2541.56,0.5979898
2542.494,0.59803791
2543.428,0.59843595
2544.364,0.598682
2545.3,0.59912058
2546.236,0.59971371
2547.174,0.59961344
2548.112,0.59885963
2549.05,0.5986508
2549.99,0.59918829
2550.93,0.59926892
2551.87,0.59860367
2552.812,0.59838279
2553.754,0.59889831
2554.697,0.59908493
2555.64,0.59878476
2556.585,0.59888928
2557.529,0.59929666
2558.475,0.59895752
2559.421,0.59806202
2560.368,0.59779293
2561.316,0.59782768
2562.264,0.59682386
2563.213,0.59566456
2564.163,0.59607281
2565.113,0.59728576
2566.065,0.59772466
2567.016,0.5978995
2567.969,0.59871346
2568.922,0.59919772
2569.876,0.59848817
2570.831,0.59808935
2571.786,0.59883491
2572.742,0.59894834
2573.699,0.59756502
2574.656,0.59677044
2575.615,0.59737136
2576.573,0.59746609
2577.533,0.59676647
2578.493,0.59721632
2579.454,0.59851429
2580.416,0.59835011
2581.378,0.59699391
2582.342,0.596803
2583.305,0.59739
2584.27,0.59666427
2585.235,0.59584266
2586.201,0.59670828
2587.168,0.59758979
2588.135,0.59672168
2589.103,0.59620218
2590.072,0.59757735
2591.042,0.59902751
2592.012,0.59923506
2592.983,0.59963108
2593.955,0.60027527
2594.927,0.59851493
2595.9,0.59562378
2596.874,0.59562035
2597.849,0.59756159
2598.824,0.59846206
2599.8,0.59834531
2600.777,0.59888157
2601.755,0.59955868
2602.733,0.59886741
2603.712,0.5978654
2604.692,0.59798097
2605.672,0.59786353
2606.653,0.59660903
2607.635,0.5961247
2608.618,0.59708527
2609.601,0.59771976
2610.585,0.59746967
2611.57,0.59772065
2612.556,0.59862766
2613.542,0.59884792
2614.529,0.59822067
2615.517,0.59776203
2616.505,0.59747958
2617.495,0.59679774
2618.485,0.59627965
2619.475,0.59646782
2620.467,0.59661468
2621.459,0.59642283
2622.452,0.59673462
2623.446,0.59773227
2624.44,0.59842738
2625.435,0.59822022
2626.431,0.59765224
2627.428,0.59736074
2628.426,0.59724027
2629.424,0.59698962
2630.423,0.59657275
2631.423,0.59604132
2632.423,0.5955475
2633.424,0.59533806
2634.426,0.59554055
2635.429,0.59600177
2636.432,0.5964686
2637.437,0.59678034
2638.442,0.59691623
2639.447,0.59687359
2640.454,0.59660467
2641.461,0.59620216
2642.469,0.59593678
2643.478,0.59586109
2644.488,0.59562855
2645.498,0.59510353
2646.509,0.59470771
2647.521,0.59474731
2648.534,0.59499057
2649.547,0.59518343
2650.561,0.59522376
2651.576,0.59481932
2652.592,0.59383124
2653.609,0.59281521
2654.626,0.59229304
2655.644,0.59197965
2656.663,0.59157275
2657.682,0.59127944
2658.703,0.59101382
2659.724,0.59026438
2660.746,0.5893075
2661.768,0.58905864
2662.792,0.58939669
2663.816,0.58923635
2664.841,0.58821518
2665.867,0.5869774
2666.894,0.5858592
2667.921,0.58478149
2668.949,0.58391795
2669.978,0.58283591
2671.008,0.58067381
2672.038,0.57813346
2673.07,0.57672316
2674.102,0.57610699
2675.135,0.57459151
2676.168,0.5714506
2677.203,0.56759989
2678.238,0.56377196
2679.274,0.55991676
2680.311,0.55633486
2681.349,0.55300696
2682.387,0.54892614
2683.426,0.54345955
2684.467,0.53736804
2685.507,0.53135728
2686.549,0.52496432
2687.591,0.51787649
2688.635,0.51067253
2689.679,0.50358433
2690.724,0.49615892
2691.769,0.48811613
2692.816,0.47917466
2693.863,0.4683434
2694.911,0.45518094
2695.96,0.4413554
2697.01,0.42863555
2698.06,0.41681451
2699.112,0.40496133
2700.164,0.39274069
2701.217,0.3801103
2702.27,0.36711875
2703.325,0.35453652
2704.38,0.34352734
2705.437,0.3344741
2706.494,0.32710054
2707.552,0.32146878
2708.61,0.31770993
2709.67,0.3147531
2710.73,0.31078531
2711.791,0.30569566
2712.853,0.30107664
2713.916,0.2973428
2714.98,0.29336154
2716.044,0.28824931
2717.109,0.28211383
2718.175,0.27578414
2719.242,0.27098259
2720.31,0.27011237
2721.379,0.27400004
2722.448,0.28031754
2723.518,0.2860848
2724.589,0.29022165
2725.661,0.29263681
2726.734,0.29293409
2727.808,0.29112759
2728.882,0.28819547
2729.958,0.28532111
2731.034,0.283427
2732.111,0.2834372
2733.188,0.28584386
2734.267,0.28962214
2735.347,0.29264704
2736.427,0.29403253
2737.508,0.29460045
2738.59,0.2950276
2739.673,0.29505414
2740.757,0.2944836
2741.841,0.29362561
2742.927,0.29269573
2744.013,0.29187799
2745.1,0.29170967
2746.188,0.29236825
2747.277,0.29325955
2748.367,0.29392693
2749.457,0.29466786
2750.549,0.29565783
2751.641,0.29649954
2752.734,0.2970155
2753.828,0.29740943
2754.923,0.29745209
2756.019,0.29685982
2757.115,0.29652746
2758.213,0.29729941
2759.311,0.29852745
2760.41,0.2992377
2761.51,0.29940436
2762.611,0.29942534
2763.713,0.29923409
2764.816,0.29884262
2765.919,0.29888297
2767.024,0.29955471
2768.129,0.30025623
2769.235,0.30065391
2770.342,0.30113139
2771.45,0.30179094
2772.559,0.30224634
2773.669,0.30256993
2774.779,0.30317763
2775.891,0.30390756
2777.003,0.30429379
2778.116,0.30444821
2779.23,0.30478008
2780.345,0.30516775
2781.461,0.30533694
2782.578,0.3055796
2783.696,0.30618937
2784.814,0.30677263
2785.934,0.30685164
2787.054,0.30670161
2788.175,0.30696042
2789.297,0.30768188
2790.42,0.30848004
2791.544,0.30918947
2792.669,0.30976914
2793.795,0.31013345
2794.922,0.3104082
2796.049,0.31098507
2797.178,0.31199697
2798.307,0.31304569
2799.437,0.31365383
2800.568,0.31371864
2801.7,0.31338379
2802.833,0.31285716
2803.967,0.31256158
2805.102,0.31297532
2806.238,0.31398875
2807.374,0.31498604
2808.512,0.31562402
2809.65,0.31608557
2810.789,0.31657756
2811.93,0.31699949
2813.071,0.31726066
2814.213,0.31751471
2815.356,0.31784187
2816.5,0.31806259
2817.645,0.31803692
2818.791,0.3178428
2819.937,0.31759286
2821.085,0.31741976
2822.233,0.31756046
2823.383,0.31809952
2824.533,0.31876589
2825.685,0.3192338
2826.837,0.31941005
2827.99,0.3193355
2829.144,0.31906403
2830.299,0.31873461
2831.455,0.31847849
2832.612,0.31820707
2833.77,0.3177223
2834.929,0.31700597
2836.089,0.31617823
2837.25,0.31530894
2838.411,0.31446257
2839.574,0.31371235
2840.737,0.31298124
2841.902,0.31217473
2843.067,0.31144037
2844.234,0.31096152
2845.401,0.3106178
2846.569,0.31023477
2847.739,0.30998957
2848.909,0.31015689
2850.08,0.3106673
2851.252,0.31128972
2852.425,0.31196898
2853.599,0.31265116
2854.774,0.3131877
2855.95,0.31368508
2857.127,0.31447993
2858.305,0.31555889
2859.484,0.31652246
2860.664,0.31719205
2861.844,0.31773932
2863.026,0.31820788
2864.209,0.31845369
2865.392,0.31853652
2866.577,0.31866893
2867.763,0.31883011
2868.949,0.31886135
2870.137,0.31882686
2871.325,0.31889208
2872.515,0.3190078
2873.705,0.31905325
2874.897,0.31912357
2876.089,0.31934072
2877.283,0.31957166
2878.477,0.31962961
2879.673,0.31960322
2880.869,0.31968211
2882.066,0.31979713
2883.265,0.31973084
2884.464,0.31951165
2885.664,0.3194091
2886.866,0.31956646
2888.068,0.31987878
2889.271,0.3202034
2890.476,0.32042387
2891.681,0.32035897
2892.887,0.3199426
2894.095,0.31945077
2895.303,0.31921357
2896.512,0.31917613
2897.723,0.31907257
2898.934,0.31889922
2900.146,0.31884012
2901.36,0.31886435
2902.574,0.31880185
2903.789,0.31869749
2905.006,0.3186787
2906.223,0.3186573
2907.441,0.31852305
2908.661,0.31841012
2909.881,0.31842946
2911.103,0.31840455
2912.325,0.31820766
2913.549,0.31807112
2914.773,0.31822673
2915.999,0.31851124
2917.225,0.31861669
2918.453,0.31848518
2919.681,0.3181967
2920.911,0.31776495
2922.142,0.31727151
2923.373,0.31692612
2924.606,0.31678185
2925.84,0.31664445
2927.075,0.31641127
2928.31,0.31623896
2929.547,0.31622706
2930.785,0.31624826
2932.024,0.31622569
2933.264,0.31628487
2934.505,0.31648008
2935.747,0.31665398
2936.99,0.31670262
2938.234,0.31672041
2939.479,0.31676264
2940.726,0.3167513
2941.973,0.31672732
2943.221,0.31691583
2944.471,0.31742228
2945.721,0.31806759
2946.973,0.31858751
2948.225,0.31879688
2949.479,0.31861553
2950.733,0.31817385
2951.989,0.31783247
2953.246,0.31785254
2954.504,0.31809934
2955.763,0.31825394
2957.023,0.31821193
2958.284,0.31809369
2959.546,0.31801068
2960.809,0.31800673
2962.073,0.31811732
2963.339,0.31833744
2964.605,0.3186052
2965.873,0.31887725
2967.141,0.31913944
2968.411,0.31935057
2969.681,0.31948892
2970.953,0.3196358
2972.226,0.31991925
2973.5,0.32038676
2974.775,0.32095854
2976.051,0.32145503
2977.328,0.32168387
2978.607,0.32161342
2979.886,0.32145755
2981.167,0.32147921
2982.448,0.32173178
2983.731,0.32206689
2985.015,0.32233954
2986.3,0.32251733
2987.586,0.3226696
2988.873,0.32292743
2990.161,0.32336028
2991.45,0.32383232
2992.74,0.32410307
2994.032,0.32412373
2995.324,0.3241158
2996.618,0.32429949
2997.913,0.3246806
2999.209,0.32515903
3000.506,0.32568054
3001.804,0.32617713
3003.103,0.32649861
3004.404,0.32655374
3005.705,0.32643739
3007.008,0.32632371
3008.312,0.32632482
3009.616,0.32652619
3010.922,0.32699166
3012.23,0.32761917
3013.538,0.32814879
3014.847,0.32844847
3016.158,0.32862798
3017.469,0.32879085
3018.782,0.32890297
3020.096,0.32898716
3021.411,0.32917513
3022.727,0.32947429
3024.044,0.32975893
3025.363,0.33005144
3026.683,0.33052901
3028.003,0.33122052
3029.325,0.33198851
3030.648,0.3327561
3031.972,0.33343939
3033.298,0.33377333
3034.624,0.33357123
3035.952,0.33307433
3037.281,0.33271749
3038.611,0.33266098
3039.942,0.33281635
3041.274,0.33314398
3042.607,0.33361579
3043.942,0.33404769
3045.278,0.3342455
3046.615,0.33421212
3047.953,0.33406497
3049.292,0.33389058
3050.632,0.33377261
3051.974,0.33380764
3053.317,0.3339996
3054.661,0.33424947
3056.006,0.33450013
3057.352,0.33479417
3058.7,0.33516754
3060.048,0.33558475
3061.398,0.33600999
3062.749,0.33645698
3064.101,0.33689983
3065.455,0.3371849
3066.809,0.33715816
3068.165,0.33689339
3069.522,0.33666088
3070.88,0.33662748
3072.239,0.3367357
3073.6,0.33690913
3074.962,0.33716376
3076.325,0.3374717
3077.689,0.33774435
3079.054,0.33799078
3080.421,0.33827031
3081.788,0.33850363
3083.157,0.33860177
3084.527,0.33870914
3085.899,0.33901456
3087.271,0.33940541
3088.645,0.33962666
3090.02,0.33965943
3091.396,0.33964395
3092.774,0.33959606
3094.153,0.33951793
3095.532,0.3395918
3096.914,0.33994917
3098.296,0.34042911
3099.679,0.34080393
3101.064,0.34102452
3102.45,0.34108873
3103.837,0.34094542
3105.226,0.34069295
3106.616,0.3405798
3108.007,0.34067709
3109.399,0.34082508
3110.792,0.34097319
3112.187,0.34126663
3113.583,0.34173826
3114.98,0.34220785
3116.378,0.34254249
3117.778,0.34276899
3119.179,0.34292004
3120.581,0.34299495
3121.985,0.3430679
3123.389,0.34323475
3124.795,0.34347375
3126.202,0.34370849
3127.611,0.34395499
3129.02,0.34426711
3130.431,0.34460536
3131.844,0.34488355
3133.257,0.34508849
3134.672,0.34525692
3136.088,0.34538778
3137.505,0.34546716
3138.924,0.34553844
3140.344,0.34568275
3141.765,0.34593875
3143.187,0.34627943
3144.611,0.34666396
3146.036,0.34708139
3147.462,0.34752626
3148.89,0.34795489
3150.319,0.34831871
3151.749,0.34862098
3153.18,0.34889055
3154.613,0.34911541
3156.047,0.34928488
3157.482,0.34945663
3158.919,0.34968629
3160.357,0.34993419
3161.796,0.35014676
3163.236,0.35037052
3164.678,0.35066892
3166.121,0.35099227
3167.566,0.35124877
3169.011,0.35141618
3170.458,0.35149928
3171.907,0.35150261
3173.356,0.3515377
3174.807,0.35181229
3176.26,0.35242114
3177.713,0.35324776
3179.168,0.3540934
3180.624,0.35475641
3182.082,0.35503143
3183.541,0.35485578
3185.001,0.35446056
3186.463,0.35418298
3187.926,0.35415236
3189.39,0.35431969
3190.856,0.35467574
3192.323,0.35521318
3193.791,0.35576212
3195.26,0.35608673
3196.731,0.35611865
3198.204,0.35597262
3199.677,0.35581316
3201.152,0.35579466
3202.629,0.35599564
3204.106,0.356312
3205.585,0.35652805
3207.066,0.35656574
3208.548,0.35658364
3210.031,0.35680261
3211.515,0.35733837
3213.001,0.35817887
3214.488,0.35917235
3215.977,0.36001195
3217.467,0.36038952
3218.958,0.36023456
3220.451,0.35976373
3221.945,0.35929802
3223.441,0.35907736
3224.938,0.35916183
3226.436,0.35939288
3227.936,0.35949454
3229.437,0.35936453
3230.939,0.35921554
3232.443,0.35932292
3233.948,0.35968795
3235.455,0.36008251
3236.963,0.36033306
3238.472,0.36043616
3239.983,0.3604844
3241.495,0.36061656
3243.008,0.36093927
3244.523,0.36138502
3246.04,0.36176679
3247.558,0.36205174
3249.077,0.36240105
3250.598,0.36289334
3252.12,0.36342255
3253.643,0.3639312
3255.168,0.3644665
3256.694,0.36496024
3258.222,0.36520975
3259.751,0.36514132
3261.282,0.36487573
3262.814,0.36455814
3264.347,0.36433346
3265.882,0.36439581
3267.418,0.36479839
3268.956,0.36530649
3270.495,0.36563898
3272.036,0.36575525
3273.578,0.36575697
3275.122,0.36570644
3276.667,0.3656886
3278.213,0.36583639
3279.761,0.36614686
3281.31,0.36647234
3282.861,0.36676367
3284.413,0.36710533
3285.967,0.36747276
3287.522,0.36771506
3289.079,0.36781953
3290.637,0.36797924
3292.196,0.36835483
3293.757,0.36891217
3295.32,0.36946961
3296.884,0.36979861
3298.449,0.36975634
3300.016,0.3694548
3301.585,0.36922671
3303.155,0.36931394
3304.726,0.36964934
3306.299,0.36998958
3307.873,0.37017041
3309.449,0.37020741
3311.026,0.37023054
3312.605,0.37035926
3314.185,0.37060837
3315.767,0.37090514
3317.351,0.37119247
3318.936,0.37147804
3320.522,0.37180978
3322.11,0.3722627
3323.699,0.37291026
3325.29,0.37372919
3326.882,0.37455179
3328.476,0.37516222
3330.072,0.37539874
3331.669,0.37519296
3333.267,0.37463787
3334.867,0.37402415
3336.469,0.37364694
3338.072,0.37355433
3339.676,0.37361425
3341.282,0.37377006
3342.89,0.37403589
3344.499,0.37432122
3346.11,0.37450793
3347.722,0.37464214
3349.336,0.37481837
3350.952,0.37494797
3352.569,0.37486396
3354.187,0.37456538
3355.807,0.37416643
3357.429,0.37375083
3359.052,0.37344701
3360.677,0.37344412
3362.303,0.37373058
3363.931,0.37401187
3365.56,0.37404565
3367.191,0.37386417
3368.824,0.37357146
3370.458,0.37318051
3372.093,0.37274253
3373.731,0.3723732
3375.37,0.37208356
3377.01,0.37181982
3378.652,0.37167443
3380.296,0.37179734
3381.941,0.37213542
3383.588,0.37250483
3385.236,0.37285525
3386.886,0.37322148
3388.538,0.37352453
3390.191,0.37366603
3391.846,0.37372495
3393.502,0.37384672
3395.16,0.37402017
3396.82,0.3741235
3398.481,0.37410945
3400.144,0.3740294
3401.809,0.37394613
3403.475,0.37389552
3405.143,0.37384242
3406.812,0.37364944
3408.483,0.37318491
3410.156,0.37250952
3411.83,0.37186342
3413.506,0.37145773
3415.183,0.37133176
3416.862,0.37142717
3418.543,0.37171446
3420.226,0.37220204
3421.91,0.37284208
3423.596,0.37349748
3425.283,0.37404038
3426.972,0.37445474
3428.663,0.37480895
3430.355,0.37516465
3432.049,0.37555356
3433.745,0.37602775
3435.442,0.3766569
3437.141,0.37747775
3438.842,0.37845652
3440.545,0.37946086
3442.249,0.38024755
3443.954,0.38056024
3445.662,0.38033733
3447.371,0.37980991
3449.082,0.37932576
3450.794,0.37908611
3452.509,0.37907915
3454.224,0.37920937
3455.942,0.37938883
3457.661,0.37955816
3459.382,0.37972587
3461.105,0.37995993
3462.829,0.38024801
3464.556,0.38043007
3466.283,0.38039068
3468.013,0.38022467
3469.744,0.38007762
3471.477,0.37994067
3473.212,0.37976287
3474.948,0.37962376
3476.686,0.37960458
3478.426,0.37962987
3480.168,0.37961744
3481.911,0.37962819
3483.656,0.37973043
3485.403,0.37992098
3487.152,0.38026732
3488.902,0.38083174
3490.654,0.38137584
3492.408,0.38148717
3494.164,0.38110609
3495.921,0.38059223
3497.68,0.3802267
3499.441,0.38000967
3501.204,0.3799429
3502.968,0.38010805
3504.734,0.38044507
3506.502,0.38079892
3508.272,0.3811612
3510.043,0.38157745
3511.817,0.38194543
3513.592,0.38218942
3515.368,0.38245454
3517.147,0.38287224
3518.927,0.38332969
3520.71,0.38368001
3522.494,0.38393785
3524.28,0.38412498
3526.067,0.38420569
3527.857,0.38431378
3529.648,0.38473157
3531.441,0.38548778
3533.236,0.38623479
3535.032,0.38663382
3536.831,0.38664153
3538.631,0.38638276
3540.433,0.38599089
3542.237,0.38562277
3544.043,0.38541795
3545.851,0.38538249
3547.66,0.38542344
3549.471,0.38549869
3551.284,0.38561422
3553.099,0.38572897
3554.916,0.38578276
3556.735,0.38579313
3558.555,0.38580711
3560.378,0.38580018
3562.202,0.38572408
3564.028,0.38563423
3565.856,0.38566231
3567.686,0.38585871
3569.518,0.38612296
3571.351,0.38630188
3573.187,0.38630747
3575.024,0.38615067
3576.863,0.38592954
3578.704,0.38580105
3580.547,0.38588911
3582.392,0.38616247
3584.239,0.38642683
3586.088,0.38649521
3587.938,0.38635644
3589.791,0.38616096
3591.645,0.38607297
3593.501,0.3861609
3595.359,0.38636274
3597.22,0.38650054
3599.082,0.3863996
3600.946,0.38606811
3602.811,0.38569769
3604.679,0.38543949
3606.549,0.38528072
3608.421,0.38519676
3610.294,0.3852624
3612.17,0.38550507
3614.047,0.38578889
3615.926,0.38595042
3617.808,0.38594145
3619.691,0.38578288
3621.576,0.38552894
3623.463,0.38531452
3625.353,0.3852662
3627.244,0.38534871
3629.137,0.38544495
3631.032,0.38554154
3632.929,0.38566142
3634.828,0.38572079
3636.729,0.38564844
3638.632,0.38553843
3640.537,0.3855033
3642.444,0.38551085
3644.353,0.38552101
3646.263,0.38560643
3648.176,0.38579366
3650.091,0.38596916
3652.008,0.38603834
3653.927,0.3860039
3655.848,0.3858542
3657.771,0.38558342
3659.696,0.3853172
3661.623,0.38521175
3663.552,0.38524472
3665.483,0.3852796
3667.416,0.38526485
3669.351,0.38522635
3671.288,0.38517083
3673.227,0.3851392
3675.168,0.38523368
3677.111,0.38547653
3679.057,0.38574479
3681.004,0.38591063
3682.953,0.38593866
3684.905,0.38583026
3686.858,0.3856026
3688.814,0.38534118
3690.771,0.38515578
3692.731,0.38507018
3694.693,0.38502901
3696.656,0.38499889
3698.622,0.38498787
3700.59,0.38498874
3702.56,0.38496231
3704.532,0.38488692
3706.507,0.38477946
3708.483,0.38466871
3710.461,0.38457663
3712.442,0.3845374
3714.425,0.38458565
3716.409,0.384702
3718.396,0.38480851
3720.385,0.38485723
3722.376,0.38486888
3724.37,0.38487636
3726.365,0.38489571
3728.362,0.38495796
3730.362,0.38506455
3732.364,0.38513253
3734.368,0.38509345
3736.374,0.38502361
3738.382,0.38505457
3740.392,0.38521632
3742.405,0.38546291
3744.419,0.3857551
3746.436,0.38601289
3748.455,0.38613074
3750.476,0.38611857
3752.499,0.38608747
3754.525,0.38606477
3756.553,0.38600862
3758.582,0.38596534
3760.614,0.38600963
3762.649,0.3860769
3764.685,0.38606269
3766.724,0.38598875
3768.764,0.38591265
3770.807,0.38582304
3772.853,0.38575119
3774.9,0.38578044
3776.95,0.38586305
3779.001,0.38585781
3781.056,0.38577376
3783.112,0.38573683
3785.17,0.38575797
3787.231,0.38578147
3789.294,0.38585318
3791.359,0.38599427
3793.427,0.38607866
3795.496,0.38603764
3797.568,0.38598571
3799.643,0.38598813
3801.719,0.38596004
3803.798,0.38589059
3805.879,0.38589601
3807.962,0.38599419
3810.048,0.38610578
3812.135,0.38625125
3814.225,0.38648248
3816.318,0.38669897
3818.412,0.38677997
3820.509,0.38677659
3822.609,0.38677797
3824.71,0.38676025
3826.814,0.38673106
3828.92,0.38681151
3831.029,0.38703186
3833.139,0.3872605
3835.252,0.38742742
3837.368,0.38761234
3839.486,0.38786576
3841.606,0.38812859
3843.728,0.38834423
3845.853,0.38849785
3847.98,0.38857042
3850.109,0.38857907
3852.241,0.38860952
3854.375,0.38871913
3856.512,0.38886906
3858.65,0.38900368
3860.792,0.38912729
3862.935,0.38925774
3865.081,0.38937981
3867.229,0.38947669
3869.38,0.38955894
3871.533,0.38964258
3873.689,0.38973106
3875.846,0.38981587
3878.007,0.38988211
3880.169,0.38991872
3882.334,0.3899337
3884.502,0.38994873
3886.672,0.3899979
3888.844,0.39012433
3891.019,0.39034098
3893.196,0.39058487
3895.375,0.39076397
3897.557,0.39086163
3899.742,0.39093977
3901.929,0.39103255
3904.118,0.39111311
3906.31,0.39117854
3908.504,0.39127539
3910.7,0.39141769
3912.9,0.3915671
3915.101,0.39171208
3917.305,0.3918746
3919.512,0.39202978
3921.721,0.39212674
3923.932,0.39219334
3926.146,0.39231313
3928.363,0.39250384
3930.581,0.39272465
3932.803,0.39296353
3935.027,0.39320161
3937.253,0.39336134
3939.482,0.39342365
3941.714,0.39350617
3943.948,0.39370707
3946.184,0.39398018
3948.423,0.39426376
3950.665,0.39458088
3952.909,0.39492267
3955.156,0.39519936
3957.405,0.39540382
3959.657,0.39564406
3961.911,0.39596344
3964.168,0.39629396
3966.427,0.39661247
3968.689,0.3969664
3970.954,0.39735439
3973.221,0.39772648
3975.491,0.39807932
3977.763,0.39842226
3980.038,0.39872206
3982.315,0.39896639
3984.595,0.39919998
3986.878,0.39943777
3989.163,0.39964214
3991.451,0.39980028
3993.742,0.39993927
3996.035,0.40007267
3998.33,0.40022114
4000.629,0.40043717
4002.93,0.40073914
4005.233,0.401087
4007.54,0.40144751
4009.849,0.40179705
4012.16,0.40207593
4014.475,0.40225223
4016.791,0.40238831
4019.111,0.40254036
4021.433,0.40267893
4023.758,0.4027873
4026.086,0.40292668
4028.416,0.40311864
4030.749,0.40330647
4033.085,0.40347424
4035.423,0.40366695
4037.764,0.40387197
4040.108,0.40404744
4042.454,0.40425468
4044.804,0.40459159
4047.155,0.40502257
4049.51,0.40543997
4051.867,0.40583895
4054.228,0.40627832
4056.59,0.40672727
4058.956,0.40712512
4061.324,0.40752532
4063.695,0.40801643
4066.069,0.40855227
4068.446,0.4090176
4070.825,0.40941281
4073.207,0.40981831
4075.592,0.41023016
4077.98,0.41060386
4080.371,0.41100355
4082.764,0.41151863
4085.16,0.4120888
4087.559,0.4126082
4089.961,0.41313827
4092.365,0.41378887
4094.773,0.41447777
4097.183,0.4150532
4099.596,0.41554385
4102.012,0.41603826
4104.43,0.416483
4106.852,0.41684722
4109.276,0.41727825
4111.703,0.41785325
4114.133,0.41843818
4116.566,0.41898637
4119.002,0.41965708
4121.441,0.42047
4123.882,0.4212244
4126.327,0.42187215
4128.774,0.42256508
4131.224,0.42328188
4133.677,0.42385139
4136.133,0.42433243
4138.592,0.42493487
4141.054,0.42563517
4143.519,0.4262746
4145.987,0.42688735
4148.457,0.4275801
4150.931,0.42830323
4153.407,0.42901118
4155.887,0.4297803
4158.369,0.43058561
4160.854,0.43127121
4163.343,0.43183858
4165.834,0.43243891
4168.328,0.43308913
4170.826,0.43371204
4173.326,0.43435618
4175.829,0.43508235
4178.335,0.43580929
4180.844,0.43650365
4183.356,0.43727386
4185.872,0.43814565
4188.39,0.43904948
4190.911,0.44009144
4193.435,0.44152084
4195.963,0.443473
4198.493,0.44603713
4201.026,0.44939461
4203.563,0.45358324
4206.102,0.45835956
4208.645,0.46358751
4211.19,0.46939105
4213.739,0.47563816
4216.291,0.48177618
4218.846,0.48748821
4221.404,0.49290215
4223.965,0.49796615
4226.529,0.50241719
4229.096,0.50641365
4231.666,0.51017917
4234.24,0.51321662
4236.816,0.51491306
4239.396,0.51553609
4241.979,0.51551173
4244.565,0.51435064
4247.154,0.51117542
4249.746,0.50589304
4252.341,0.49952122
4254.94,0.49395584
4257.542,0.49132099
4260.146,0.49288363
4262.754,0.49817731
4265.366,0.50505758
4267.98,0.51097939
4270.598,0.51460278
4273.219,0.51611286
4275.843,0.51642816
4278.47,0.51653369
4281.1,0.51700564
4283.734,0.51780388
4286.371,0.51864793
4289.011,0.51940531
4291.655,0.5199115
4294.301,0.51991898
4296.951,0.51953364
4299.604,0.51927045
4302.261,0.51936891
4304.92,0.51945545
4307.583,0.51904691
4310.25,0.51805663
4312.919,0.51668155
4315.592,0.51518793
4318.268,0.5138967
4320.948,0.51303323
4323.631,0.51248524
4326.317,0.51194863
4329.006,0.51129634
4331.699,0.51060446
4334.395,0.50991048
4337.095,0.50922951
4339.797,0.50872009
4342.504,0.50855922
4345.213,0.50872023
4347.926,0.50909681
4350.642,0.5096681
4353.362,0.51034822
4356.085,0.5109259
4358.811,0.51137638
4361.541,0.51195095
4364.275,0.51278385
4367.011,0.51374261
4369.751,0.51476739
4372.495,0.51593012
4375.242,0.51712837
4377.992,0.51820237
4380.746,0.51931957
4383.504,0.52073131
4386.264,0.522296
4389.029,0.52375278
4391.796,0.52520157
4394.567,0.52676332
4397.342,0.52818085
4400.12,0.5293271
4402.902,0.53058583
4405.687,0.53219526
4408.476,0.53382552
4411.268,0.53526759
4414.064,0.53678055
4416.863,0.53841245
4419.666,0.5398174
4422.472,0.54099335
4425.282,0.54230301
4428.096,0.54367503
4430.913,0.5447358
4433.734,0.54565951
4436.558,0.54689403
4439.386,0.54826109
4442.217,0.54927671
4445.052,0.55006183
4447.891,0.55101737
4450.733,0.55207682
4453.579,0.55305201
4456.428,0.55415628
4459.281,0.55547628
4462.138,0.55656596
4464.998,0.55717339
4467.863,0.55772411
4470.73,0.55860463
4473.602,0.55964546
4476.477,0.56062027
4479.355,0.5616067
4482.238,0.5626064
4485.124,0.56342055
4488.014,0.56404244
4490.908,0.56471224
4493.805,0.56551423
4496.706,0.56630048
4499.611,0.5670139
4502.519,0.56776831
4505.431,0.56859114
4508.347,0.56931963
4511.267,0.56984041
4514.191,0.57027958
4517.118,0.57083482
4520.049,0.57146459
4522.984,0.57198912
4525.923,0.57245234
4528.865,0.57304028
4531.812,0.57363727
4534.762,0.57393984
4537.716,0.57404222
4540.674,0.57433073
4543.635,0.57482804
4546.601,0.57524432
4549.57,0.57562851
4552.543,0.57624087
4555.521,0.57693425
4558.502,0.57739561
4561.487,0.57779275
4564.475,0.57837676
4567.468,0.57880583
4570.465,0.57872145
4573.465,0.5785989
4576.47,0.57900214
4579.478,0.5796024
4582.491,0.57991275
4585.507,0.58016123
4588.527,0.58058412
4591.551,0.58080436
4594.58,0.58070173
4597.612,0.5809144
4600.648,0.58172804
4603.688,0.58248681
4606.732,0.58271025
4609.781,0.58276308
4612.833,0.58290399
4615.889,0.58284606
4618.949,0.58264249
4622.014,0.58284775
4625.082,0.58338733
4628.155,0.58357545
4631.231,0.58345314
4634.312,0.58380843
4637.397,0.58466084
4640.485,0.5852687
4643.578,0.58558141
4646.675,0.58615778
4649.777,0.58691064
4652.882,0.58725492
4655.991,0.58739362
4659.105,0.58806175
4662.223,0.58917266
4665.345,0.59014925
4668.471,0.59118217
4671.601,0.59272792
4674.735,0.59441757
4677.874,0.59569345
4681.017,0.59676633
4684.164,0.59780766
4687.315,0.59830375
4690.471,0.59824058
4693.63,0.59868557
4696.794,0.60022371
4699.962,0.60209842
4703.135,0.60360105
4706.312,0.60498209
4709.493,0.6064155
4712.678,0.60749282
4715.868,0.60820164
4719.062,0.60909963
4722.26,0.61027747
4725.463,0.61132173
4728.669,0.61224762
4731.881,0.61336077
4735.096,0.61446595
4738.316,0.61516749
4741.541,0.61563937
4744.769,0.61629741
4748.002,0.61716725
4751.24,0.6180899
4754.482,0.61908448
4757.728,0.6201198
4760.979,0.62100779
4764.234,0.62172901
4767.494,0.62248563
4770.758,0.62335541
4774.026,0.62426308
4777.299,0.62517414
4780.577,0.62607539
4783.859,0.62689915
4787.145,0.6276039
4790.436,0.62816223
4793.732,0.62854093
4797.032,0.62885736
4800.336,0.6293692
4803.645,0.63013781
4806.959,0.63097978
4810.277,0.63187655
4813.6,0.63300141
4816.927,0.63420498
4820.259,0.63503274
4823.596,0.63538848
4826.937,0.63564533
4830.283,0.63607605
4833.633,0.63673246
4836.988,0.63772846
4840.348,0.63902987
4843.712,0.64022331
4847.081,0.64108687
4850.455,0.64201679
4853.833,0.64333458
4857.216,0.64466961
4860.604,0.64557857
4863.996,0.64626528
4867.393,0.64710496
4870.795,0.64796051
4874.202,0.64858189
4877.613,0.64921537
4881.03,0.65020731
4884.451,0.6514667
4887.876,0.65283558
4891.307,0.6544364
4894.742,0.65619834
4898.182,0.65762735
4901.627,0.65853925
4905.077,0.65944791
4908.532,0.66061804
4911.991,0.661552
4915.456,0.66202047
4918.925,0.66263068
4922.399,0.66379117
4925.878,0.66515072
4929.362,0.66646086
4932.851,0.66786714
4936.345,0.66912342
4939.844,0.66977094
4943.347,0.67025032
4946.856,0.67148638
4950.37,0.67336469
4953.888,0.67489254
4957.412,0.67571309
4960.941,0.67624764
4964.474,0.6766923
4968.013,0.67706549
4971.556,0.67776207
4975.105,0.67897178
4978.659,0.68001107
4982.218,0.68030373
4985.782,0.68041302
4989.351,0.68105232
4992.925,0.68195802
4996.504,0.68267109
5000.088,0.68342895
5003.678,0.68449265
5007.272,0.6856479
5010.872,0.68690361
5014.477,0.68857894
5018.087,0.6903127
5021.703,0.69117634
5025.323,0.69104117
5028.949,0.69072155
5032.58,0.69068795
5036.216,0.69075996
5039.857,0.69092578
5043.504,0.6914189
5047.156,0.69210007
5050.813,0.69264118
5054.475,0.69312412
5058.143,0.69377208
5061.816,0.69441221
5065.495,0.69484719
5069.179,0.69539762
5072.868,0.69649011
5076.562,0.69799222
5080.262,0.69936463
5083.967,0.70023262
5087.678,0.70055623
5091.394,0.70051977
5095.115,0.70047802
5098.842,0.7007871
5102.574,0.70150567
5106.312,0.70236782
5110.055,0.70309184
5113.804,0.70362856
5117.558,0.70410749
5121.318,0.7046427
5125.083,0.70526429
5128.854,0.70607532
5132.63,0.70737993
5136.412,0.70942417
5140.199,0.71195784
5143.992,0.71423439
5147.791,0.71555011
5151.595,0.71571128
5155.405,0.71510443
5159.22,0.71452996
5163.041,0.71476598
5166.868,0.7159494
5170.7,0.71749524
5174.538,0.71887686
5178.382,0.7201837
5182.231,0.72170988
5186.086,0.7235185
5189.947,0.72569325
5193.814,0.72837535
5197.686,0.73127664
5201.564,0.7338357
5205.448,0.73598639
5209.338,0.73791482
5213.233,0.73910971
5217.134,0.73890211
5221.041,0.73794919
5224.954,0.73779932
5228.873,0.73901126
5232.798,0.74083807
5236.728,0.74252406
5240.665,0.74383923
5244.607,0.74463929
5248.555,0.74498812
5252.51,0.74546301
5256.47,0.74646259
5260.436,0.74769573
5264.408,0.74895971
5268.386,0.75058667
5272.37,0.75257845
5276.36,0.75436806
5280.356,0.75592824
5284.358,0.75788192
5288.367,0.76008355
5292.381,0.76143344
5296.401,0.76154823
5300.428,0.76130339
5304.46,0.76141403
5308.499,0.76181519
5312.544,0.76249308
5316.595,0.76363511
5320.652,0.76492043
5324.715,0.76579415
5328.785,0.76648865
5332.86,0.76790745
5336.942,0.77061977
5341.031,0.77450088
5345.125,0.7787866
5349.226,0.78191428
5353.333,0.78228043
5357.446,0.78006722
5361.566,0.77739734
5365.692,0.77606456
5369.824,0.77607985
5373.962,0.77655765
5378.107,0.77705348
5382.259,0.77754187
5386.417,0.77793061
5390.581,0.77825651
5394.751,0.77885675
5398.928,0.77994665
5403.112,0.78158282
5407.302,0.78418693
5411.498,0.78821425
5415.701,0.79284009
5419.911,0.79582658
5424.127,0.79561367
5428.349,0.79305584
5432.579,0.79023047
5436.814,0.78850398
5441.057,0.78831214
5445.305,0.7896295
5449.561,0.79209682
5453.823,0.79539974
5458.092,0.79957345
5462.368,0.80417214
5466.65,0.807614
5470.939,0.80883651
5475.234,0.80892104
5479.537,0.80922265
5483.846,0.80916063
5488.162,0.80785672
5492.484,0.80634516
5496.814,0.80602331
5501.15,0.80694397
5505.493,0.80934657
5509.843,0.81438384
5514.2,0.82175209
5518.564,0.82905761
5522.934,0.83452139
5527.312,0.83812707
5531.696,0.84058608
5536.087,0.84389733
5540.486,0.85029286
5544.891,0.85660719
5549.303,0.84927607
5553.723,0.81356259
5558.149,0.78223711
5562.582,0.74152244
5567.023,0.70879723
5571.47,0.69994655
5575.925,0.69056507
5580.387,0.7040523
5584.856,0.73077597
5589.332,0.74926289
5593.815,0.75815092
5598.305,0.76590764
5602.803,0.77228586
5607.307,0.77369525
5611.819,0.77513115
5616.339,0.78075105
5620.865,0.78637651
5625.399,0.78848274
5629.94,0.79149101
5634.489,0.7976507
5639.044,0.80162588
5643.607,0.80016349
5648.178,0.79833032
5652.756,0.79862593
5657.341,0.79786045
5661.934,0.79618414
5666.534,0.79805505
5671.142,0.80281782
5675.757,0.80496122
5680.379,0.8040982
5685.01,0.80478498
5689.647,0.80687598
5694.293,0.80690286
5698.945,0.80672783
5703.606,0.81049989
5708.274,0.81597786
5712.949,0.8176243
5717.633,0.8165916
5722.324,0.81732614
5727.022,0.81902282
5731.729,0.8189708
5736.443,0.81928911
5741.165,0.82205965
5745.894,0.82443608
5750.631,0.8248364
5755.377,0.82769727
5760.13,0.83472949
5764.89,0.83949588
5769.659,0.83752944
5774.436,0.83387327
5779.22,0.83219012
5784.012,0.82981148
5788.813,0.82636343
5793.621,0.82598152
5798.437,0.82907822
5803.262,0.83179722
5808.094,0.8345253
5812.934,0.84096751
5817.782,0.84856332
5822.639,0.85019456
5827.503,0.84680656
5832.376,0.84444848
5837.257,0.84321985
5842.146,0.84095544
5847.043,0.84085661
5851.948,0.84540223
5856.862,0.85039488
5861.783,0.85218215
5866.714,0.85489307
5871.652,0.86131313
5876.598,0.86665229
5881.553,0.86721771
5886.517,0.8667348
5891.488,0.86622449
5896.468,0.86194506
5901.457,0.8555791
5906.454,0.85326994
5911.459,0.85499758
5916.473,0.85662307
5921.495,0.85896447
5926.526,0.86527089
5931.565,0.87178714
5936.613,0.87158494
5941.67,0.86690185
5946.735,0.86393023
5951.809,0.86265102
5956.891,0.86145849
5961.982,0.86246864
5967.082,0.8660144
5972.19,0.8679499
5977.307,0.86703211
5982.433,0.86701268
5987.568,0.86811567
5992.711,0.86660271
5997.864,0.8635225
6003.025,0.86340498
6008.195,0.86541042
6013.374,0.86488982
6018.562,0.86243082
6023.759,0.862601
6028.964,0.86642023
6034.179,0.8719593
6039.403,0.87850412
6044.636,0.88407827
6049.878,0.88450317
6055.129,0.88084404
6060.389,0.87923671
6065.658,0.88084077
6070.936,0.88106022
6076.224,0.87777454
6081.52,0.87436692
6086.826,0.87337828
6092.141,0.87446577
6097.466,0.87771757
6102.8,0.88293157
6108.143,0.88662593
6113.495,0.88553698
6118.857,0.8818905
6124.228,0.87952135
6129.609,0.87894715
6134.999,0.87953381
6140.398,0.881675
6145.807,0.88468343
6151.226,0.88622341
6156.654,0.88576209
6162.091,0.88529125
6167.539,0.88591415
6172.996,0.88697035
6178.462,0.88802063
6183.938,0.88882288
6189.424,0.88847215
6194.92,0.88700196
6200.425,0.88611889
6205.94,0.8865828
6211.465,0.88710219
6217.0,0.88676412
6222.544,0.88655487
6228.099,0.88713922
6233.663,0.88763419
6239.237,0.88754702
6244.822,0.88772762
6250.416,0.88848557
6256.02,0.88911963
6261.635,0.88959947
6267.259,0.89062275
6272.893,0.89174728
6278.538,0.89186333
6284.193,0.89130995
6289.858,0.89136316
6295.533,0.89196655
6301.218,0.89232403
6306.914,0.8928128
6312.619,0.89415504
6318.336,0.89581634
6324.062,0.89735027
6329.799,0.89949321
6335.546,0.90200356
6341.304,0.90279059
6347.072,0.90177272
6352.851,0.90186069
6358.64,0.90409199
6364.44,0.90601337
6370.25,0.90591087
6376.071,0.90501488
6381.903,0.90454383
6387.745,0.90483068
6393.598,0.9073504
6399.461,0.91314916
6405.335,0.91906976
6411.221,0.9202192
6417.116,0.91731071
6423.023,0.91433191
6428.941,0.91194021
6434.869,0.90969892
6440.809,0.90904771
6446.759,0.91027035
6452.72,0.91129225
6458.693,0.91188616
6464.676,0.91448755
6470.671,0.91918736
6476.676,0.92273412
6482.693,0.92361913
6488.721,0.92319357
6494.76,0.92159236
6500.81,0.91875802
6506.872,0.91724716
6512.945,0.91838634
6519.029,0.91955259
6525.124,0.9187114
6531.231,0.91799586
6537.35,0.91917087
6543.48,0.92071972
6549.621,0.92179235
6555.774,0.9239301
6561.938,0.92687056
6568.114,0.92806811
6574.302,0.92763349
6580.501,0.92769979
6586.712,0.92770765
6592.934,0.9261355
6599.169,0.92469093
6605.415,0.92570844
6611.673,0.92844567
6617.943,0.93115042
6624.224,0.93361733
6630.518,0.93478259
6636.823,0.93243844
6643.141,0.9281527
6649.47,0.92621185
6655.812,0.927402
6662.166,0.92910952
6668.532,0.92979067
6674.91,0.92998309
6681.3,0.92976548
6687.702,0.92909071
6694.117,0.92947169
6700.544,0.93166093
6706.983,0.93347894
6713.435,0.93291243
6719.899,0.93127978
6726.375,0.9304015
6732.864,0.92994895
6739.365,0.92958864
6745.879,0.93027659
6752.406,0.93210398
6758.945,0.93383351
6765.497,0.93530588
6772.062,0.93728545
6778.639,0.93880743
6785.229,0.9380571
6791.832,0.93592787
6798.448,0.9348238
6805.076,0.935056
6811.718,0.93551747
6818.372,0.93607285
6825.039,0.93699033
6831.72,0.93784405
6838.413,0.93875297
6845.12,0.94066935
6851.84,0.9430151
6858.573,0.94338653
6865.319,0.94139338
6872.078,0.93943953
6878.851,0.93873604
6885.637,0.93854486
6892.437,0.93862224
6899.25,0.93929947
6906.076,0.93986441
6912.916,0.93948358
6919.769,0.9390243
6926.636,0.9396186
6933.517,0.94082897
6940.411,0.94184576
6947.319,0.94284477
6954.241,0.94373937
6961.176,0.94370292
6968.125,0.94305812
6975.089,0.94313982
6982.066,0.94393507
6989.057,0.94428783
6996.062,0.94415093
7003.081,0.94442777
7010.114,0.94511652
7017.161,0.94576737
7024.223,0.94681847
7031.298,0.9485178
7038.388,0.94973906
7045.492,0.94967733
7052.611,0.94920161
7059.743,0.94906924
7066.891,0.94888582
7074.052,0.9485243
7081.229,0.94859185
7088.419,0.94914997
7095.625,0.94965016
7102.845,0.95013533
7110.079,0.95100977
7117.329,0.95198757
7124.593,0.95263676
7131.872,0.95329892
7139.166,0.954337
7146.475,0.95524261
7153.799,0.95543078
7161.137,0.95512917
7168.491,0.95484497
7175.86,0.95472631
7183.244,0.95483726
7190.643,0.95529233
7198.058,0.95591291
7205.487,0.95628459
7212.933,0.9562999
7220.393,0.95628482
7227.869,0.95654969
7235.36,0.95708112
7242.867,0.95770391
7250.39,0.9583683
7257.928,0.95907954
7265.481,0.9596278
7273.051,0.95978123
7280.636,0.95974666
7288.237,0.95993348
7295.854,0.96033397
7303.487,0.96072139
7311.135,0.96123644
7318.8,0.96206328
7326.481,0.96281477
7334.178,0.96304054
7341.891,0.96297294
7349.62,0.9630102
7357.366,0.96310261
7365.128,0.96323325
7372.906,0.9636988
7380.701,0.96443676
7388.512,0.96498417
7396.34,0.96532541
7404.184,0.96586455
7412.045,0.96651202
7419.922,0.96686209
7427.817,0.96706634
7435.728,0.96756337
7443.656,0.96825891
7451.601,0.96882159
7459.562,0.96926185
7467.541,0.96961835
7475.537,0.96969968
7483.55,0.96958255
7491.58,0.9696378
7499.628,0.96990199
7507.692,0.97010436
7515.774,0.97024559
7523.874,0.97051834
7531.99,0.97087796
7540.125,0.97121416
7548.277,0.97159259
7556.446,0.97200575
7564.633,0.97230429
7572.838,0.97250292
7581.061,0.97271032
7589.302,0.97286037
7597.56,0.97291896
7605.837,0.97305953
7614.131,0.97329181
7622.444,0.973378
7630.774,0.97330679
7639.123,0.97332084
7647.491,0.97343925
7655.876,0.97353637
7664.28,0.97374111
7672.702,0.9741735
7681.143,0.97459329
7689.602,0.97482014
7698.08,0.97505607
7706.577,0.97539518
7715.093,0.97560137
7723.627,0.97565118
7732.18,0.97583858
7740.752,0.9761889
7749.343,0.97644199
7757.953,0.97661037
7766.583,0.97690504
7775.231,0.97724744
7783.899,0.97746214
7792.586,0.97769738
7801.292,0.97813852
7810.018,0.9786363
7818.764,0.97903991
7827.529,0.97948339
7836.313,0.98004271
7845.117,0.98052394
7853.942,0.98084416
7862.786,0.98120254
7871.649,0.98172129
7880.533,0.98228383
7889.437,0.98280006
7898.361,0.98328766
7907.305,0.98369646
7916.27,0.98393943
7925.254,0.98410802
7934.26,0.98437713
7943.285,0.98475469
7952.331,0.98513163
7961.398,0.98552236
7970.485,0.98601591
7979.594,0.98656397
7988.723,0.9870225
7997.872,0.98737356
8007.043,0.987701
8016.235,0.98801959
8025.448,0.98829509
8034.682,0.98857688
8043.937,0.98891703
8053.214,0.98925333
8062.512,0.98951192
8071.832,0.98971965
8081.173,0.98990937
8090.535,0.99006364
8099.92,0.99024783
8109.326,0.99058334
8118.754,0.99103042
8128.204,0.99141868
8137.676,0.9917006
8147.169,0.99195469
8156.686,0.99220392
8166.224,0.99243966
8175.785,0.99273588
8185.368,0.99311891
8194.973,0.99348064
8204.601,0.99375796
8214.252,0.99402459
8223.925,0.99430446
8233.621,0.99452579
8243.34,0.99471713
8253.082,0.99499538
8262.847,0.99536115
8272.635,0.9957102
8282.446,0.99602287
8292.281,0.996348
8302.139,0.996681
8312.02,0.99700162
8321.925,0.9973394
8331.853,0.99769362
8341.805,0.99800442
8351.781,0.99825628
8361.781,0.99851496
8371.804,0.99882826
8381.852,0.99916621
8391.924,0.99946453
8402.02,0.99970406
8412.14,0.99992134
8422.285,0.0100013975
8432.454,0.0100033206
8442.648,0.0100050542
8452.866,0.010007267
8463.109,0.0100100978
8473.377,0.0100127426
8483.67,0.010014997
8493.988,0.0100173908
8504.331,0.0100196303
8514.699,0.0100209804
8525.092,0.0100222449
8535.511,0.0100244599
8545.955,0.0100267008
8556.425,0.0100277511
8566.921,0.0100285822
8577.442,0.0100302504
8587.989,0.0100318431
8598.562,0.0100327295
8609.161,0.0100339829
8619.786,0.0100357573
8630.437,0.0100368484
8641.115,0.0100375215
8651.819,0.0100392253
8662.55,0.0100415047
8673.307,0.0100430242
8684.091,0.0100442965
8694.902,0.0100462482
8705.739,0.0100483285
8716.604,0.0100503299
8727.496,0.010053253
8738.415,0.0100568075
8749.361,0.0100595091
8760.335,0.0100614489
8771.336,0.0100636364
8782.365,0.0100657436
8793.422,0.0100675905
8804.507,0.0100703093
8815.619,0.0100738464
8826.76,0.0100768024
8837.928,0.0100796344
8849.125,0.0100836841
8860.351,0.0100876738
8871.604,0.0100899736
8882.887,0.0100921296
8894.198,0.010095623
8905.538,0.0100986682
8916.907,0.0101003533
8928.305,0.0101026963
8939.732,0.0101057402
8951.188,0.0101068947
8962.673,0.0101067506
8974.189,0.0101081106
8985.733,0.0101100051
8997.308,0.0101098195
9008.912,0.010109203
9020.546,0.0101102994
9032.21,0.0101106805
9043.905,0.0101083072
9055.629,0.0101062026
9067.384,0.0101063824
9079.17,0.010106293
9090.986,0.0101047192
9102.833,0.0101039547
9114.711,0.0101035586
9126.62,0.0101004365
9138.56,0.010095373
9150.531,0.0100918849
9162.534,0.0100896314
9174.568,0.0100863358
9186.634,0.0100831646
9198.731,0.010082123
9210.86,0.0100814741
9223.022,0.0100793106
9235.215,0.0100771287
9247.441,0.0100763129
9259.699,0.0100753928
9271.99,0.0100736296
9284.313,0.0100725505
9296.669,0.0100726624
9309.058,0.0100724516
9321.48,0.0100714352
9333.935,0.0100706312
9346.423,0.010070259
9358.945,0.010069547
9371.5,0.0100688006
9384.089,0.0100690555
9396.712,0.0100704801
9409.369,0.0100722466
9422.06,0.0100738904
9434.785,0.0100755237
9447.545,0.0100772526
9460.339,0.0100789811
9473.167,0.0100809555
9486.031,0.0100833388
9498.929,0.0100856952
9511.863,0.0100874738
9524.832,0.0100890219
9537.836,0.010091121
9550.876,0.0100937494
9563.951,0.010096245
9577.062,0.0100984279
9590.209,0.0101004146
9603.393,0.0101021319
9616.612,0.0101036859
9629.868,0.0101054855
9643.16,0.010107415
9656.49,0.0101091252
9669.856,0.0101108979
9683.259,0.0101131429
9696.699,0.010115224
9710.176,0.0101164136
9723.691,0.0101169604
9737.244,0.010117175
9750.834,0.010116593
9764.463,0.0101152816
9778.129,0.0101140472
9791.834,0.0101129428
9805.577,0.0101114013
9819.359,0.0101101316
9833.18,0.0101100738
9847.039,0.0101105119
9860.938,0.0101101634
9874.875,0.010109624
9888.853,0.0101099119
9902.869,0.0101105739
9916.926,0.0101107762
9931.022,0.010111046
9945.159,0.0101117663
9959.336,0.0101122132
9973.553,0.0101122295
9987.811,0.0101129449
10002.109,0.0101145453
10016.449,0.0101157638
10030.83,0.0101159553
10045.252,0.010115974
10059.715,0.0101162626
10074.221,0.0101162661
10088.768,0.0101160066
10103.357,0.0101164671
10117.988,0.0101177462
10132.662,0.010118969
10147.378,0.0101200601
10162.137,0.0101219606
10176.939,0.0101247174
10191.784,0.0101273072
10206.672,0.0101296665
10221.604,0.0101327675
10236.58,0.0101364288
10251.6,0.0101394433
10266.663,0.0101418696
10281.771,0.0101447381
10296.924,0.0101475453
10312.121,0.0101490249
10327.363,0.0101496237
10342.65,0.0101506426
10357.982,0.0101517853
10373.36,0.0101524067
10388.784,0.0101532853
10404.253,0.0101548947
10419.769,0.0101558363
10435.331,0.0101554257
10450.939,0.0101549007
10466.594,0.0101548531
10482.296,0.0101545175
10498.045,0.0101541595
10513.842,0.0101547857
10529.686,0.0101558483
10545.577,0.0101564625
10561.517,0.0101575079
10577.505,0.0101595653
10593.542,0.0101613426
10609.627,0.0101620985
10625.761,0.0101627168
10641.944,0.0101628504
10658.176,0.0101612905
10674.458,0.010158891
10690.79,0.0101573196
10707.172,0.0101560548
10723.604,0.0101546035
10740.086,0.0101544941
10756.619,0.0101559765
10773.203,0.0101567426
10789.839,0.0101565302
10806.525,0.0101572888
10823.264,0.0101584315
10840.054,0.0101579309
10856.896,0.0101573755
10873.791,0.0101591273
10890.738,0.0101613865
10907.738,0.0101620941
10924.791,0.0101633601
10941.898,0.0101662193
10959.058,0.0101677292
10976.272,0.0101672217
10993.541,0.0101679728
11010.863,0.0101700828
11028.24,0.0101705058
11045.672,0.0101698967
11063.16,0.0101708109
11080.702,0.010171256
11098.301,0.0101689189
11115.955,0.010166979
11133.665,0.0101680113
11151.432,0.0101685468
11169.256,0.0101661238
11187.137,0.0101634941
11205.075,0.0101618329
11223.07,0.0101584997
11241.124,0.0101540743
11259.235,0.0101518627
11277.405,0.0101512156
11295.634,0.0101494877
11313.921,0.0101481254
11332.268,0.0101488157
11350.675,0.0101487142
11369.141,0.0101456138
11387.667,0.0101422384
11406.254,0.0101405716
11424.901,0.010138828
11443.61,0.0101362973
11462.38,0.0101347093
11481.211,0.0101337312
11500.105,0.0101314201
11519.06,0.0101284409
11538.079,0.0101267575
11557.16,0.0101258372
11576.304,0.0101245425
11595.511,0.0101237386
11614.783,0.0101243037
11634.118,0.010125028
11653.518,0.0101248873
11672.983,0.0101246402
11692.513,0.010124971
11712.108,0.0101250898
11731.769,0.0101244347
11751.496,0.0101236025
11771.29,0.0101231522
11791.15,0.0101226039
11811.077,0.0101218428
11831.072,0.0101220171
11851.134,0.0101241207
11871.265,0.0101271144
11891.464,0.010129643
11911.731,0.0101318203
11932.068,0.0101338003
11952.475,0.0101341572
11972.951,0.0101327546
11993.497,0.0101320352
12014.114,0.0101335178
12034.802,0.0101355808
12055.562,0.0101373459
12076.393,0.010139759
12097.296,0.0101419553
12118.271,0.0101414224
12139.32,0.0101388855
12160.441,0.0101369465
12181.636,0.0101353042
12202.905,0.0101326984
12224.249,0.010131346
12245.667,0.0101327769
12267.16,0.0101340445
12288.729,0.0101330058
12310.373,0.0101321096
12332.094,0.010132492
12353.892,0.0101313458
12375.767,0.0101280168
12397.719,0.0101254777
12419.75,0.0101241419
12441.859,0.0101219831
12464.046,0.0101201864
12486.313,0.0101212496
12508.659,0.0101233655
12531.086,0.0101235752
12553.593,0.0101226732
12576.18,0.0101221349
12598.85,0.0101207013
12621.601,0.0101181593
12644.434,0.0101169687
12667.35,0.0101176885
12690.349,0.0101175475
12713.432,0.0101159678
12736.599,0.0101154141
12759.85,0.010116573
12783.187,0.010117613
12806.608,0.0101183678
12830.116,0.0101198545
12853.71,0.0101210713
12877.391,0.0101204877
12901.159,0.0101196364
12925.016,0.0101208199
12948.96,0.0101234143
12972.993,0.0101256264
12997.116,0.0101280183
13021.329,0.0101311599
13045.631,0.0101331638
13070.025,0.0101327913
13094.51,0.0101322614
13119.087,0.0101331734
13143.756,0.0101340675
13168.518,0.01013448
13193.373,0.0101367129
13218.322,0.0101403113
13243.366,0.01014172
13268.505,0.0101410181
13293.74,0.010142136
13319.07,0.0101449397
13344.497,0.0101460107
13370.021,0.0101461582
13395.644,0.0101481511
13421.364,0.0101490703
13447.183,0.0101457376
13473.102,0.0101420725
13499.121,0.0101418238
13525.24,0.0101409044
13551.461,0.0101367821
13577.783,0.0101341112
13604.208,0.0101344052
13630.736,0.0101324139
13657.367,0.0101284062
13684.103,0.0101278974
13710.943,0.010128347
13737.889,0.0101222931
13764.941,0.0101131876
13792.099,0.0101092817
13819.365,0.0101085302
13846.739,0.0101056316
13874.221,0.0101044638
13901.813,0.0101074046
13929.515,0.0101074274
13957.327,0.0101021239
13985.25,0.0100995771
14013.285,0.0101010141
14041.433,0.010098711
14069.694,0.010093666
14098.068,0.010093704
14126.558,0.0100950493
14155.163,0.010089446
14183.883,0.0100816156
14212.721,0.0100790766
14241.676,0.0100764331
14270.749,0.0100696779
14299.94,0.0100671478
14329.252,0.010071786
14358.684,0.0100733097
14388.237,0.0100689692
14417.911,0.0100661181
14447.709,0.0100627393
14477.629,0.0100509859
14507.674,0.0100382219
14537.844,0.0100353191
14568.139,0.0100360653
14598.561,0.0100309263
14629.109,0.0100264549
14659.786,0.0100271281
14690.592,0.0100238379
14721.528,0.0100142994
14752.594,0.0100100618
14783.791,0.0100091866
14815.121,0.99973552
14846.583,0.99743841
14878.179,0.99524145
14909.91,0.99307998
14941.777,0.99084879
14973.78,0.9897682
15005.92,0.99034317
15038.198,0.99040645
15070.616,0.98884861
15103.173,0.98661482
15135.871,0.98459422
15168.712,0.98181063
15201.695,0.97851292
15234.821,0.97499771
15268.092,0.97110831
15301.509,0.9656948
15335.072,0.95965846
15368.783,0.95252688
15402.642,0.94483563
15436.651,0.93597919
15470.81,0.92806595
15505.12,0.91874986
15539.583,0.90920745
15574.199,0.89863205
15608.97,0.8887624
15643.896,0.87329372
15678.979,0.85597609
15714.22,0.83631285
15749.619,0.82008535
15785.178,0.80298473
15820.897,0.78817418
15856.779,0.77512514
15892.824,0.76705075
15929.033,0.75391896
15965.407,0.73510885
