Database of Origin,University of Winnipeg Spectrophotometer Facility
Sample Description,16.11. Meteorites - HEDs 16.11.3. NASA samples (4) Bruker Vertex 70 FTIR spectrometer
Other Information,MIR Glowbar KBr Beam Splitter MCT cryo cooled Dectect.
Date Added,2018-07-23 23:49:05.775705

Data ID,FTIR_MET2_6_32      
Sample ID,Tatahouine
Mineral Name,Diogenite
Grain Size,Surface
Viewing Geometry,i30/ e0
Resolution,7.71cm-1

Wavelength
1672.316177,0.05343
1674.476792,0.05286
1676.642997,0.05273
1678.814814,0.0532
1680.992268,0.05367
1683.175374,0.05419
1685.364158,0.05416
1687.558643,0.05292
1689.758849,0.05192
1691.9648,0.05175
1694.176519,0.05164
1696.394027,0.05147
1698.61735,0.05124
1700.846507,0.05123
1703.081521,0.05152
1705.322418,0.05213
1707.569219,0.0528
1709.821949,0.05195
1712.08063,0.04994
1714.345286,0.04903
1716.615945,0.04896
1718.892624,0.04844
1721.175349,0.04777
1723.464146,0.04765
1725.759038,0.04805
1728.060049,0.04826
1730.367205,0.04806
1732.68053,0.04766
1735.000051,0.04726
1737.325788,0.04696
1739.657769,0.04681
1741.996018,0.04694
1744.340562,0.04735
1746.691425,0.0472
1749.048633,0.04628
1751.412211,0.04545
1753.78219,0.04517
1756.158588,0.04549
1758.541435,0.04553
1760.930758,0.04472
1763.326581,0.04403
1765.728933,0.04418
1768.13784,0.04462
1770.553328,0.04471
1772.975429,0.04445
1775.404162,0.0441
1777.839558,0.04371
1780.281645,0.04325
1782.73045,0.04308
1785.186001,0.04311
1787.648326,0.04303
1790.117454,0.04316
1792.593414,0.0432
1795.07623,0.04281
1797.565933,0.04255
1800.062552,0.04231
1802.566116,0.04157
1805.076653,0.04074
1807.594193,0.04075
1810.118766,0.0415
1812.650403,0.04213
1815.189129,0.04208
1817.734976,0.04141
1820.287974,0.04054
1822.848154,0.04031
1825.415545,0.04087
1827.990179,0.04151
1830.572085,0.04164
1833.161299,0.04148
1835.757844,0.04147
1838.361756,0.04136
1840.973065,0.04121
1843.591803,0.04079
1846.218001,0.04011
1848.851693,0.03974
1851.492909,0.03983
1854.141686,0.03991
1856.798049,0.03956
1859.462034,0.03894
1862.133675,0.03862
1864.813003,0.03858
1867.500053,0.03882
1870.194858,0.03914
1872.897451,0.03907
1875.60787,0.03879
1878.326142,0.0385
1881.052305,0.03822
1883.786392,0.03816
1886.528439,0.03828
1889.27848,0.03815
1892.03655,0.03783
1894.802685,0.03777
1897.576923,0.03819
1900.359294,0.03841
1903.149835,0.03794
1905.948585,0.03761
1908.755578,0.03759
1911.570851,0.03738
1914.394441,0.03686
1917.226385,0.03649
1920.066724,0.03664
1922.915487,0.03693
1925.772716,0.03692
1928.638449,0.03655
1931.512723,0.03623
1934.395578,0.03598
1937.28705,0.03575
1940.18718,0.03592
1943.09601,0.03626
1946.013571,0.03625
1948.939907,0.0359
1951.875057,0.03544
1954.819061,0.03523
1957.771959,0.03569
1960.733792,0.03637
1963.7046,0.03643
1966.684429,0.03585
1969.67331,0.03529
1972.671291,0.03486
1975.678411,0.03457
1978.694713,0.03481
1981.72024,0.03521
1984.755033,0.035
1987.799135,0.03451
1990.852594,0.03451
1993.915443,0.03472
1996.987732,0.03479
2000.069502,0.0349
2003.160799,0.03498
2006.261667,0.03499
2009.37215,0.0348
2012.492292,0.03481
2015.622144,0.03545
2018.761742,0.03586
2021.911136,0.03551
2025.070371,0.03491
2028.239495,0.03461
2031.418553,0.03494
2034.607593,0.03556
2037.806661,0.03582
2041.015809,0.03536
2044.235076,0.03481
2047.464515,0.03479
2050.704173,0.03483
2053.9541,0.03493
2057.214344,0.03498
2060.484955,0.03522
2063.765981,0.03582
2067.057478,0.03604
2070.359486,0.03579
2073.672061,0.03529
2076.995253,0.03499
2080.329113,0.0351
2083.673693,0.03521
2087.029044,0.0352
2090.39522,0.03508
2093.772276,0.03508
2097.160256,0.03557
2100.559219,0.0361
2103.969217,0.03606
2107.390304,0.03568
2110.822536,0.03557
2114.265965,0.03571
2117.720647,0.03566
2121.186643,0.03555
2124.663997,0.03537
2128.152772,0.03522
2131.653022,0.03569
2135.164806,0.03637
2138.68818,0.0367
2142.223201,0.03684
2145.769927,0.03712
2149.328422,0.03763
2152.898735,0.03814
2156.480928,0.0383
2160.075063,0.03825
2163.681197,0.03837
2167.299393,0.03852
2170.929709,0.03861
2174.572208,0.03862
2178.226956,0.03868
2181.894004,0.03898
2185.57342,0.03926
2189.265266,0.0394
2192.969606,0.03962
2196.686503,0.03997
2200.416021,0.04005
2204.158225,0.03994
2207.913183,0.03997
2211.680953,0.04016
2215.461603,0.0405
2219.255201,0.04081
2223.061813,0.04096
2226.881507,0.04106
2230.714349,0.04125
2234.560407,0.04152
2238.419756,0.04182
2242.292454,0.04227
2246.178575,0.04256
2250.07819,0.04241
2253.991369,0.04254
2257.918183,0.04318
2261.858702,0.04408
2265.813,0.04484
2269.781154,0.0449
2273.763225,0.04464
2277.759293,0.0447
2281.769432,0.04505
2285.793716,0.04545
2289.832221,0.04579
2293.88502,0.0462
2297.952192,0.04664
2302.033816,0.04698
2306.129961,0.04725
2310.240709,0.04754
2314.366139,0.04785
2318.506328,0.04817
2322.661356,0.04859
2326.831304,0.04913
2331.016252,0.04953
2335.216286,0.04964
2339.431477,0.04972
2343.661913,0.05013
2347.907677,0.05078
2352.168852,0.05142
2356.445521,0.05197
2360.737771,0.0522
2365.045686,0.05235
2369.369358,0.0527
2373.708861,0.05302
2378.06429,0.05345
2382.435731,0.05394
2386.823273,0.0543
2391.227005,0.05462
2395.647017,0.05499
2400.0834,0.05557
2404.53625,0.05606
2409.005647,0.05628
2413.491691,0.05676
2417.994473,0.05745
2422.514088,0.05776
2427.050631,0.05797
2431.604196,0.05846
2436.17488,0.0589
2440.762785,0.05908
2445.367997,0.05921
2449.99062,0.0595
2454.630753,0.05999
2459.288496,0.06037
2463.963948,0.06064
2468.657212,0.06092
2473.368389,0.06117
2478.097588,0.06134
2482.844901,0.06168
2487.610438,0.06239
2492.394303,0.06306
2497.196603,0.06336
2502.017445,0.0634
2506.856937,0.06345
2511.715186,0.06366
2516.592308,0.06411
2521.488402,0.06436
2526.403583,0.06427
2531.337964,0.06442
2536.291658,0.0648
2541.264778,0.06497
2546.257439,0.06515
2551.269756,0.06525
2556.301852,0.06502
2561.353831,0.06507
2566.425818,0.06578
2571.517932,0.06631
2576.630293,0.06633
2581.763021,0.0659
2586.91624,0.06537
2592.090072,0.06528
2597.284647,0.06589
2602.500077,0.06649
2607.736495,0.06667
2612.994027,0.06676
2618.272802,0.06692
2623.572949,0.06661
2628.894597,0.06632
2634.237878,0.06645
2639.60293,0.06638
2644.989874,0.06644
2650.398851,0.06663
2655.829995,0.06666
2661.283444,0.06667
2666.759335,0.06696
2672.257807,0.06714
2677.779,0.06714
2683.323062,0.06722
2688.890121,0.067
2694.480328,0.06676
2700.093828,0.06652
2705.730766,0.06617
2711.39129,0.06596
2717.075548,0.06579
2722.783689,0.06582
2728.515871,0.06602
2734.272233,0.0661
2740.052934,0.06615
2745.85813,0.06576
2751.687977,0.06525
2757.542631,0.06532
2763.422252,0.0651
2769.327,0.06435
2775.257043,0.06396
2781.212529,0.06348
2787.19363,0.06292
2793.200512,0.06248
2799.233341,0.06215
2805.292287,0.06224
2811.377519,0.06219
2817.489208,0.06162
2823.627536,0.06098
2829.79266,0.06056
2835.984766,0.06022
2842.20403,0.0598
2848.450631,0.05953
2854.72475,0.05938
2861.02657,0.05915
2867.356274,0.05867
2873.714055,0.05818
2880.100086,0.05781
2886.514561,0.05729
2892.957673,0.05689
2899.429613,0.05691
2905.930575,0.05694
2912.460755,0.05664
2919.020351,0.05656
2925.609569,0.05662
2932.228594,0.05616
2938.877637,0.05547
2945.556904,0.05499
2952.266599,0.05459
2959.006933,0.05435
2965.778115,0.05443
2972.580357,0.05446
2979.413883,0.05377
2986.278891,0.05304
2993.175608,0.05295
3000.104254,0.05287
3007.065051,0.05243
3014.058225,0.05201
3021.084,0.05191
3028.142607,0.05186
3035.234283,0.05172
3042.359245,0.05143
3049.517737,0.05122
3056.709994,0.05126
3063.936258,0.05124
3071.196769,0.05114
3078.491772,0.05111
3085.821513,0.05103
3093.186251,0.05069
3100.586217,0.05022
3108.021674,0.04994
3115.492879,0.04989
3123.000089,0.04989
3130.543567,0.04981
3138.123574,0.04953
3145.740377,0.04925
3153.394256,0.04926
3161.08546,0.04918
3168.814274,0.04889
3176.580974,0.04872
3184.38584,0.04858
3192.229154,0.04848
3200.1112,0.04854
3208.032266,0.04847
3215.992653,0.04826
3223.992633,0.0481
3232.032514,0.04773
3240.112594,0.04734
3248.233176,0.04731
3256.394564,0.04757
3264.597068,0.04774
3272.840999,0.0474
3281.126681,0.04696
3289.454413,0.0468
3297.824524,0.04661
3306.237341,0.04631
3314.693189,0.04608
3323.192401,0.04577
3331.735311,0.04531
3340.322256,0.04509
3348.95359,0.045
3357.629634,0.04472
3366.350748,0.04441
3375.117285,0.04407
3383.929601,0.04367
3392.788054,0.0432
3401.693008,0.04236
3410.64483,0.04134
3419.643903,0.04074
3428.690579,0.04098
3437.785247,0.04183
3446.928291,0.0425
3456.120099,0.04266
3465.36106,0.04258
3474.651571,0.04238
3483.99203,0.04202
3493.382855,0.04148
3502.824429,0.04111
3512.317177,0.0413
3521.861515,0.0417
3531.457866,0.04192
3541.106657,0.04211
3550.808317,0.0422
3560.563284,0.04209
3570.372009,0.04174
3580.234914,0.04131
3590.15246,0.04112
3600.125104,0.0413
3610.153306,0.04144
3620.237532,0.04123
3630.378252,0.04103
3640.575942,0.04102
3650.831097,0.04096
3661.144177,0.04085
3671.515689,0.04075
3681.946129,0.04051
3692.436003,0.04017
3702.985818,0.03997
3713.596091,0.03995
3724.267342,0.03996
3735.000113,0.03976
3745.79491,0.03951
3756.652285,0.03956
3767.572784,0.03964
3778.556959,0.03939
3789.605369,0.03909
3800.71858,0.03902
3811.897162,0.03896
3823.141709,0.03883
3834.452778,0.03875
3845.830974,0.0387
3857.276898,0.03866
3868.791155,0.03845
3880.37436,0.03809
3892.027134,0.03792
3903.750106,0.03794
3915.543926,0.03792
3927.409209,0.03789
3939.346621,0.03776
3951.356822,0.03741
3963.44048,0.03717
3975.598271,0.03717
3987.830879,0.03687
4000.138997,0.0362
4012.523342,0.03593
4024.984593,0.03606
4037.523484,0.03608
4050.140742,0.03591
4062.837106,0.03569
4075.613322,0.03546
4088.470144,0.03532
4101.408338,0.03526
4114.428697,0.03522
4127.531971,0.03505
4140.718972,0.03477
4153.990505,0.03478
4167.347385,0.035
4180.790439,0.03491
4194.320503,0.0348
4207.938425,0.03528
4221.64508,0.03609
4235.441304,0.03685
4249.327994,0.03717
4263.306045,0.03681
4277.376359,0.0362
4291.539855,0.03561
4305.79746,0.03498
4320.150116,0.03436
4334.598795,0.03382
4349.144426,0.03336
4363.788008,0.033
4378.530532,0.03274
4393.373006,0.03277
4408.316449,0.03293
4423.361896,0.03265
4438.510393,0.03218
4453.763023,0.03208
4469.120824,0.03217
4484.584908,0.03203
4500.15638,0.03177
4515.836365,0.03158
4531.626,0.03145
4547.52644,0.03122
4563.538854,0.03084
4579.664452,0.03052
4595.904394,0.03027
4612.259923,0.02999
4628.732277,0.02968
4645.322713,0.02921
4662.032504,0.02868
4678.862943,0.02817
4695.815342,0.02782
4712.891054,0.02761
4730.091384,0.02757
4747.417723,0.02747
4764.871462,0.02705
4782.45401,0.02665
4800.1668,0.02648
4818.011283,0.02639
4835.988934,0.02621
4854.101273,0.02603
4872.349771,0.02595
4890.735994,0.02586
4909.261506,0.02576
4927.927896,0.02561
4946.736778,0.02529
4965.68979,0.02516
4984.788594,0.02519
5004.034903,0.02513
5023.430384,0.02512
5042.976803,0.02513
5062.675928,0.02496
5082.529556,0.02453
5102.539511,0.02403
5122.707649,0.02369
5143.03585,0.02359
5163.526056,0.02358
5184.180157,0.02369
5205.000154,0.02387
5225.988055,0.02393
5247.145898,0.02391
5268.475756,0.02399
5289.979735,0.02427
5311.659976,0.02442
5333.518684,0.0243
5355.558014,0.02413
5377.780242,0.02419
5400.187657,0.02431
5422.78258,0.02426
5445.567377,0.02421
5468.544451,0.02416
5491.716246,0.02408
5515.085278,0.024
5538.654014,0.02383
5562.425058,0.02381
5586.401024,0.02384
5610.584574,0.02369
5634.978416,0.0235
5659.585305,0.02328
5684.408043,0.02319
5709.449517,0.02309
5734.712564,0.02281
5760.200171,0.02257
5785.915346,0.02234
5811.861151,0.02219
5838.040701,0.02221
5864.457171,0.02235
5891.11379,0.02231
5918.013883,0.02206
5945.160732,0.0218
5972.557781,0.02153
6000.208507,0.02145
6028.116449,0.02148
6056.285213,0.02133
6084.718472,0.02115
6113.41997,0.02098
6142.393557,0.0207
6171.643046,0.02051
6201.172433,0.02043
6230.985758,0.02038
6261.087133,0.02029
6291.480755,0.02012
6322.1709,0.01993
6353.161929,0.01989
6384.458328,0.02008
6416.064553,0.02008
6447.985267,0.01998
6480.225188,0.02001
6512.789128,0.01988
6545.681997,0.01979
6578.908804,0.01964
6612.47466,0.01944
6646.384825,0.01965
6680.644535,0.01976
6715.259268,0.01918
6750.234571,0.01857
6785.576107,0.01823
6821.28966,0.01797
6857.381134,0.01756
6893.856559,0.01709
6930.722144,0.01679
6967.984085,0.01658
7005.648858,0.01657
7043.72303,0.01665
7082.213314,0.01651
7121.126567,0.01622
7160.469802,0.01573
7200.250183,0.01513
7240.47509,0.0148
7281.15191,0.01454
7322.288355,0.01416
7363.892259,0.0137
7405.971636,0.01329
7448.534685,0.01278
7491.589791,0.01218
7535.145539,0.01178
7579.210768,0.01164
7623.794353,0.01167
7668.905555,0.01152
7714.553795,0.01106
7760.74872,0.01057
7807.500211,0.01015
7854.818386,0.00973
7902.713612,0.00926
7951.196573,0.00865
8000.278026,0.00805
8049.969186,0.00765
8100.281485,0.00747
8151.226643,0.00726
8202.816677,0.0069
8255.063908,0.00657
8307.980976,0.00625
8361.580914,0.00599
8415.876885,0.00598
8470.882607,0.00634
8526.612089,0.00688
8583.07971,0.00785
8640.300232,0.0106
8698.288814,0.01674
8757.061026,0.02822
8816.632938,0.04623
8877.020825,0.06862
8938.241648,0.09173
9000.312761,0.11246
9063.252001,0.12606
9127.077709,0.12971
9191.808745,0.12558
9257.464511,0.11867
9324.065051,0.11329
9391.630729,0.1096
9460.182767,0.10635
9529.742923,0.10236
9600.3336,0.09579
9671.977869,0.08701
9744.699495,0.07791
9818.522964,0.07193
9893.473606,0.07266
9969.577237,0.07915
10046.86077,0.08781
10125.35186,0.09612
10205.07902,0.10269
10286.0717,0.10574
10368.36026,0.10585
10451.97605,0.10574
10536.95157,0.10438
10623.32001,0.10145
10711.11603,0.09809
10800.37531,0.09162
10891.13475,0.08127
10983.43249,0.0738
11077.30797,0.07656
11172.80199,0.0889
11269.9569,0.10141
11368.81615,0.10523
11469.42513,0.10081
11571.83069,0.09261
11676.0814,0.08366
11782.22758,0.07534
11890.32139,0.06804
12000.41694,0.06205
12112.5705,0.05709
12226.84001,0.05296
12343.28609,0.0495
12461.97152,0.04662
12582.96151,0.04491
12706.32386,0.04287
12832.12902,0.03945
12960.45029,0.03612
13091.36408,0.03327
13224.94941,0.03092
13361.28907,0.02979
13500.46914,0.02976
13642.57932,0.0304
13787.71312,0.03162
13935.96807,0.03144
14087.44596,0.02891
14242.25324,0.02671
14400.50047,0.02729
14562.30382,0.02865
14727.78452,0.02721
14897.06937,0.02309
15070.29108,0.01922
15247.58859,0.01991
15429.10747,0.02401
15615.00054,0.0259
15805.42735,0.02474
16000.55605,0.02518
16200.56297,0.03394
16405.63335,0.0537
16615.96195,0.07565
16831.75363,0.08992
17053.22403,0.0979
17280.60061,0.10564
17514.12221,0.11111
17754.04165,0.11002
18000.62552,0.1057
18254.15542,0.10378
18514.92902,0.10562
18783.26128,0.11194
19059.48566,0.12852
19343.95592,0.14892
19637.04612,0.1542
19939.15447,0.14381
20250.70371,0.13176
20572.1434,0.12057
20903.95211,0.10591
21246.63979,0.09167
21600.75039,0.08505
21966.86522,0.08826
22345.60422,0.09446
22737.6323,0.09055
23143.66139,0.07789
23564.45516,0.0671
24000.83388,0.05821
24453.67973,0.06024
24923.94272,0.08104
25412.64804,0.12609
