Database of Origin,University of Winnipeg Spectrophotometer Facility
Sample Description,Carbonates and Oxolates -  D&P Spectra Reflectance spectra
Other Information,"Designs and Prototypes 102F spectra/Relative to infragold 1"" disk/Reflectance only"
Date Added,2018-08-06 21:11:30.638078

Data ID,FTIR_CARB_39_11     
Sample ID,SYN009
Mineral Name,Sodium Carbonate
Locality,Alfa Aesar stock #11552
Grain Size,<45 um
Viewing Geometry,i=35/ e=0
Resolution,~3 cm-1
Formula,Na2CO3
Composition,synthetic. Anhydrous

Wavelength
2.001142,0.63865166
2.002307,0.63825448
2.003474,0.63778172
2.004643,0.6376931
2.005812,0.63808424
2.006983,0.63800363
2.008155,0.63768448
2.009329,0.63817013
2.010504,0.63917472
2.01168,0.63940869
2.012858,0.63990921
2.014037,0.64136455
2.015217,0.64239137
2.016399,0.64252219
2.017582,0.64228528
2.018766,0.6419176
2.019952,0.64157937
2.021139,0.64113587
2.022328,0.64047661
2.023518,0.64007517
2.024709,0.63950532
2.025902,0.63898697
2.027096,0.63914252
2.028291,0.6392539
2.029488,0.63906554
2.030686,0.63910459
2.031886,0.63944177
2.033087,0.63953238
2.034289,0.63975282
2.035493,0.6400094
2.036698,0.63982588
2.037905,0.63954808
2.039113,0.63934747
2.040322,0.63950502
2.041533,0.63963363
2.042746,0.63926957
2.043959,0.63915229
2.045174,0.63933257
2.046391,0.63904511
2.047609,0.63886804
2.048828,0.6386076
2.050049,0.63810366
2.051271,0.63814653
2.052495,0.63783361
2.05372,0.63724403
2.054947,0.63736247
2.056175,0.63784837
2.057404,0.63825215
2.058635,0.63835229
2.059867,0.63820794
2.061101,0.63801451
2.062336,0.63818486
2.063573,0.63843407
2.064811,0.63828332
2.066051,0.63863115
2.067292,0.63903411
2.068534,0.63869526
2.069778,0.6385982
2.071024,0.63908308
2.072271,0.63942868
2.073519,0.63927037
2.074769,0.63921846
2.07602,0.6395722
2.077273,0.63975277
2.078528,0.6399092
2.079784,0.63991252
2.081041,0.63991405
2.0823,0.64032942
2.08356,0.64065364
2.084822,0.64068568
2.086085,0.6404812
2.08735,0.64067602
2.088617,0.64169882
2.089885,0.64247357
2.091154,0.64222974
2.092425,0.64217121
2.093697,0.6425547
2.094971,0.64270981
2.096247,0.642856
2.097524,0.6429696
2.098803,0.64373993
2.100083,0.64460489
2.101364,0.64489768
2.102648,0.64557359
2.103932,0.64624592
2.105219,0.64708031
2.106506,0.64776991
2.107796,0.64775518
2.109087,0.6482881
2.110379,0.64898278
2.111673,0.6495064
2.112969,0.65022294
2.114266,0.65047145
2.115565,0.65029877
2.116865,0.65021088
2.118167,0.65039604
2.119471,0.6505271
2.120776,0.6504771
2.122082,0.65028661
2.123391,0.64999837
2.1247,0.64985546
2.126012,0.64931523
2.127325,0.64848501
2.12864,0.64842473
2.129956,0.64908133
2.131274,0.64983858
2.132593,0.65031189
2.133914,0.65005128
2.135237,0.6494213
2.136561,0.64930679
2.137887,0.64930893
2.139214,0.649422
2.140544,0.6498133
2.141874,0.65004079
2.143207,0.64999137
2.144541,0.64962379
2.145876,0.64921642
2.147214,0.64906885
2.148553,0.64928613
2.149893,0.64912363
2.151235,0.6487137
2.152579,0.64832192
2.153925,0.64780022
2.155272,0.64777193
2.156621,0.64766222
2.157972,0.64733472
2.159324,0.64715947
2.160678,0.64665862
2.162033,0.64606588
2.16339,0.64558136
2.164749,0.64537389
2.16611,0.64508365
2.167472,0.64459001
2.168836,0.64467657
2.170202,0.6445647
2.171569,0.64421689
2.172938,0.64412287
2.174309,0.64400143
2.175682,0.64386694
2.177056,0.64405812
2.178432,0.64471841
2.179809,0.64500091
2.181189,0.64500207
2.18257,0.64510683
2.183952,0.6449715
2.185337,0.64491456
2.186723,0.64495228
2.188111,0.64508399
2.189501,0.64584389
2.190892,0.64675458
2.192285,0.64668615
2.19368,0.64563043
2.195077,0.64551529
2.196476,0.64677914
2.197876,0.64747302
2.199278,0.64714539
2.200682,0.6469123
2.202087,0.64712622
2.203494,0.64762444
2.204903,0.64816846
2.206314,0.6483199
2.207727,0.64825561
2.209141,0.64859589
2.210557,0.64886562
2.211975,0.64865839
2.213395,0.64869236
2.214817,0.64889476
2.21624,0.64915054
2.217665,0.64960391
2.219092,0.6497331
2.220521,0.64947341
2.221952,0.64946206
2.223384,0.64990306
2.224818,0.65021016
2.226254,0.65028262
2.227692,0.65051771
2.229132,0.65067845
2.230574,0.65010644
2.232017,0.64951878
2.233462,0.64965851
2.23491,0.64961483
2.236359,0.64950645
2.237809,0.64955045
2.239262,0.64937869
2.240717,0.64905615
2.242173,0.64887364
2.243631,0.64897073
2.245092,0.64856808
2.246554,0.64801158
2.248017,0.64781029
2.249483,0.64767932
2.250951,0.64755724
2.252421,0.64725448
2.253892,0.64701642
2.255365,0.64655463
2.256841,0.64562007
2.258318,0.64523519
2.259797,0.64512484
2.261278,0.64386971
2.262761,0.64242872
2.264246,0.64183536
2.265732,0.64135308
2.267221,0.64081193
2.268712,0.640153
2.270204,0.63905593
2.271699,0.63766209
2.273195,0.63652753
2.274694,0.63547692
2.276194,0.63402654
2.277696,0.63300267
2.279201,0.6325191
2.280707,0.63173023
2.282215,0.63070256
2.283725,0.62948056
2.285237,0.62803845
2.286752,0.6265605
2.288268,0.62546476
2.289786,0.624869
2.291306,0.6242938
2.292828,0.62379196
2.294352,0.62331015
2.295878,0.62297442
2.297406,0.62239016
2.298936,0.62103192
2.300468,0.62012862
2.302002,0.62010227
2.303539,0.62005901
2.305077,0.61982737
2.306617,0.61941026
2.308159,0.61849121
2.309703,0.61758719
2.31125,0.61691203
2.312798,0.61634496
2.314348,0.61602569
2.315901,0.61507599
2.317455,0.61366891
2.319012,0.61286731
2.320571,0.6123656
2.322131,0.61175704
2.323694,0.61068866
2.325259,0.60939348
2.326826,0.60808545
2.328395,0.60626542
2.329966,0.60449294
2.33154,0.60293819
2.333115,0.60111852
2.334692,0.59913942
2.336272,0.59744458
2.337854,0.5961101
2.339437,0.5942527
2.341023,0.59211899
2.342611,0.59067527
2.344201,0.58932392
2.345794,0.58766061
2.347388,0.58621821
2.348985,0.58526798
2.350583,0.58461723
2.352184,0.58439013
2.353787,0.58508075
2.355393,0.58673269
2.357,0.58893472
2.358609,0.59157205
2.360221,0.59479228
2.361835,0.59817703
2.363451,0.60159888
2.365069,0.60510717
2.36669,0.60852661
2.368312,0.61152193
2.369937,0.61392981
2.371564,0.61633336
2.373194,0.61863011
2.374825,0.62011839
2.376459,0.62128092
2.378095,0.62238401
2.379733,0.62312549
2.381373,0.62361092
2.383016,0.62369741
2.384661,0.62377857
2.386308,0.62423899
2.387957,0.62471355
2.389609,0.62491625
2.391263,0.62483005
2.392919,0.6246888
2.394577,0.62485719
2.396238,0.62471945
2.397901,0.62400084
2.399566,0.62338521
2.401233,0.62279612
2.402903,0.62174555
2.404575,0.62079493
2.40625,0.62049391
2.407926,0.61980821
2.409606,0.61859453
2.411287,0.61751213
2.412971,0.6162946
2.414657,0.61488793
2.416345,0.6136521
2.418036,0.61276919
2.419729,0.61192282
2.421424,0.61095296
2.423122,0.60979101
2.424822,0.60823216
2.426524,0.6068162
2.428229,0.60559671
2.429936,0.60421941
2.431646,0.60327401
2.433358,0.60270706
2.435072,0.60215829
2.436789,0.60175077
2.438508,0.60128103
2.440229,0.60081023
2.441953,0.60063298
2.443679,0.60048053
2.445408,0.59958753
2.447139,0.5984913
2.448873,0.59829485
2.450609,0.5982181
2.452347,0.59756937
2.454088,0.59676929
2.455831,0.59551448
2.457577,0.59426799
2.459325,0.59363441
2.461076,0.59270208
2.462829,0.59151609
2.464585,0.59036784
2.466343,0.58903628
2.468104,0.58770453
2.469867,0.58604046
2.471632,0.584324
2.4734,0.58297072
2.475171,0.58134283
2.476944,0.57946356
2.47872,0.57762444
2.480498,0.57569809
2.482278,0.57393361
2.484062,0.57262778
2.485847,0.57179416
2.487636,0.57086073
2.489427,0.56975784
2.49122,0.56866179
2.493016,0.56750737
2.494814,0.56675934
2.496615,0.56659333
2.498419,0.56668413
2.500225,0.56654896
2.502034,0.56645493
2.503845,0.5663138
2.505659,0.56588741
2.507476,0.56561566
2.509295,0.56548791
2.511117,0.56534145
2.512942,0.56483541
2.514769,0.56402141
2.516598,0.56340722
2.518431,0.56259056
2.520266,0.56116409
2.522103,0.55944249
2.523944,0.55747403
2.525787,0.55546419
2.527632,0.553785
2.52948,0.55223534
2.531331,0.55014281
2.533185,0.54771486
2.535041,0.54547231
2.5369,0.54305689
2.538762,0.54057741
2.540627,0.53873192
2.542494,0.53711122
2.544364,0.53540665
2.546236,0.53399562
2.548112,0.53256706
2.54999,0.53257779
2.55187,0.53425113
2.553754,0.53611807
2.55564,0.53856347
2.557529,0.54180304
2.559421,0.54635677
2.561316,0.55305401
2.563213,0.5607268
2.565113,0.56809175
2.567016,0.57505285
2.568922,0.58242228
2.570831,0.58890227
2.572742,0.59380972
2.574656,0.59756572
2.576573,0.60008163
2.578493,0.60213264
2.580416,0.60455187
2.582342,0.60686306
2.58427,0.60766109
2.586201,0.60810656
2.588135,0.60852906
2.590072,0.60853807
2.592012,0.61069634
2.593955,0.61463386
2.5959,0.61417096
2.597849,0.61269428
2.5998,0.61340157
2.601755,0.61510567
2.603712,0.61747882
2.605672,0.61838536
2.607635,0.61784579
2.609601,0.61781796
2.61157,0.61774976
2.613542,0.61826349
2.615517,0.6194256
2.617495,0.61929029
2.619475,0.61816368
2.621459,0.61687872
2.623446,0.616674
2.625435,0.61744929
2.627428,0.61836307
2.629424,0.61931031
2.631423,0.61870883
2.633424,0.61719353
2.635429,0.61620137
2.637437,0.6158581
2.639447,0.6159235
2.641461,0.61579534
2.643478,0.61560596
2.645498,0.61533194
2.647521,0.61444602
2.649547,0.61404874
2.651576,0.61447924
2.653609,0.61403299
2.655644,0.61266344
2.657682,0.61200643
2.659724,0.61155225
2.661768,0.61115065
2.663816,0.61253173
2.665867,0.61284493
2.667921,0.61140218
2.669978,0.61040775
2.672038,0.60770351
2.674102,0.60689247
2.676168,0.60772497
2.678238,0.60612746
2.680311,0.60298776
2.682387,0.60107285
2.684467,0.60005922
2.686549,0.59876761
2.688635,0.596986
2.690724,0.59596005
2.692816,0.59599527
2.694911,0.5937219
2.69701,0.58939133
2.699112,0.58705436
2.701217,0.58513396
2.703325,0.58235434
2.705437,0.58029727
2.707552,0.57959354
2.70967,0.57923637
2.711791,0.57557739
2.713916,0.57089058
2.716044,0.56839572
2.718175,0.56801081
2.72031,0.5666462
2.722448,0.56202188
2.724589,0.55674657
2.726734,0.55046111
2.728882,0.54496646
2.731034,0.54057678
2.733188,0.53697941
2.735347,0.53319978
2.737508,0.53045207
2.739673,0.52809211
2.741841,0.52137883
2.744013,0.51469152
2.746188,0.51018387
2.748367,0.50625198
2.750549,0.5018538
2.752734,0.49792634
2.754923,0.49411503
2.757115,0.48730984
2.759311,0.48150791
2.76151,0.47729116
2.763713,0.47202436
2.765919,0.46681216
2.768129,0.46188311
2.770342,0.45603775
2.772559,0.44981089
2.774779,0.44446282
2.777003,0.43911996
2.77923,0.43314917
2.781461,0.42660375
2.783696,0.4203725
2.785934,0.41483506
2.788175,0.40724318
2.79042,0.39936727
2.792669,0.39276967
2.794922,0.38618475
2.797178,0.37959209
2.799437,0.37270859
2.8017,0.36522805
2.803967,0.35591944
2.806238,0.34765182
2.808512,0.34208497
2.810789,0.33806454
2.813071,0.3352863
2.815356,0.33247205
2.817645,0.32915932
2.819937,0.32483468
2.822233,0.31909852
2.824533,0.3133447
2.826837,0.30786689
2.829144,0.30184101
2.831455,0.29576361
2.83377,0.28993127
2.836089,0.28363889
2.838411,0.27714713
2.840737,0.27137863
2.843067,0.26633344
2.845401,0.26085765
2.847739,0.25447306
2.85008,0.24823191
2.852425,0.24270701
2.854774,0.23698829
2.857127,0.23110559
2.859484,0.2255549
2.861844,0.22006227
2.864209,0.21479326
2.866577,0.20970559
2.868949,0.20441796
2.871325,0.1988561
2.873705,0.1937751
2.876089,0.18929446
2.878477,0.18486541
2.880869,0.18090834
2.883265,0.17671066
2.885664,0.17232636
2.888068,0.16910501
2.890476,0.16616369
2.892887,0.16235853
2.895303,0.1584231
2.897723,0.15498164
2.900146,0.15173924
2.902574,0.1486878
2.905006,0.14613663
2.907441,0.14400405
2.909881,0.14170631
2.912325,0.13920879
2.914773,0.1375099
2.917225,0.13636174
2.919681,0.13424121
2.922142,0.131501
2.924606,0.12912229
2.927075,0.12703596
2.929547,0.1252436
2.932024,0.12357393
2.934505,0.122116
2.93699,0.12118948
2.939479,0.12020663
2.941973,0.11850683
2.944471,0.1173665
2.946973,0.11785918
2.949479,0.11725978
2.951989,0.11541942
2.954504,0.11517227
2.957023,0.11472245
2.959546,0.11296261
2.962073,0.11184953
2.964605,0.11120535
2.967141,0.11064211
2.969681,0.11023215
2.972226,0.11019868
2.974775,0.11104996
2.977328,0.11085036
2.979886,0.10897177
2.982448,0.10779076
2.985015,0.10754303
2.987586,0.10703669
2.990161,0.10680278
2.99274,0.10661547
2.995324,0.10578591
2.997913,0.10525918
3.000506,0.1054395
3.003103,0.10544004
3.005705,0.10429813
3.008312,0.10288048
3.010922,0.10221872
3.013538,0.10197208
3.016158,0.10139281
3.018782,0.10026005
3.021411,0.09924124
3.024044,0.09849457
3.026683,0.09802502
3.029325,0.09882972
3.031972,0.10022287
3.034624,0.09922103
3.037281,0.09662649
3.039942,0.09541828
3.042607,0.09567612
3.045278,0.09608348
3.047953,0.0953062
3.050632,0.09383723
3.053317,0.09302832
3.056006,0.0928602
3.0587,0.09293637
3.061398,0.09341639
3.064101,0.09449981
3.066809,0.09480774
3.069522,0.09391545
3.072239,0.0931077
3.074962,0.09276445
3.077689,0.09307899
3.080421,0.0936777
3.083157,0.09373996
3.085899,0.09392614
3.088645,0.09423764
3.091396,0.09393009
3.094153,0.09346541
3.096914,0.09353985
3.099679,0.09466396
3.10245,0.09507589
3.105226,0.0939286
3.108007,0.09305071
3.110792,0.09261624
3.113583,0.09254226
3.116378,0.09264891
3.119179,0.09228773
3.121985,0.09201959
3.124795,0.0920363
3.127611,0.09160921
3.130431,0.09102929
3.133257,0.09084207
3.136088,0.09062723
3.138924,0.09032638
3.141765,0.09019993
3.144611,0.0902218
3.147462,0.09036846
3.150319,0.09050567
3.15318,0.09065619
3.156047,0.09077146
3.158919,0.09068296
3.161796,0.09052637
3.164678,0.09040647
3.167566,0.09028968
3.170458,0.09028647
3.173356,0.09026748
3.17626,0.09016164
3.179168,0.09110094
3.182082,0.09199005
3.185001,0.09096505
3.187926,0.089796
3.190856,0.0900265
3.193791,0.09087237
3.196731,0.09066754
3.199677,0.08973968
3.202629,0.08966814
3.205585,0.08965798
3.208548,0.0891409
3.211515,0.09029309
3.214488,0.09309052
3.217467,0.09408431
3.220451,0.09216403
3.223441,0.09045453
3.226436,0.09019903
3.229437,0.08925709
3.232443,0.08836621
3.235455,0.08836747
3.238472,0.08783584
3.241495,0.08742042
3.244523,0.08791124
3.247558,0.08841302
3.250598,0.08895857
3.253643,0.08956044
3.256694,0.089679
3.259751,0.08840886
3.262814,0.08580009
3.265882,0.08458991
3.268956,0.08507042
3.272036,0.08449518
3.275122,0.08290795
3.278213,0.08208548
3.28131,0.08183637
3.284413,0.08155878
3.287522,0.08105241
3.290637,0.08044305
3.293757,0.08103962
3.296884,0.08149125
3.300016,0.07956955
3.303155,0.07802105
3.306299,0.07773119
3.309449,0.07646021
3.312605,0.07512398
3.315767,0.07444971
3.318936,0.07378423
3.32211,0.07350864
3.32529,0.07426275
3.328476,0.07518373
3.331669,0.0734327
3.334867,0.0697624
3.338072,0.06753337
3.341282,0.06668823
3.344499,0.06625153
3.347722,0.0656503
3.350952,0.06448691
3.354187,0.06215013
3.357429,0.05882568
3.360677,0.05670511
3.363931,0.0561907
3.367191,0.05550883
3.370458,0.05431038
3.373731,0.05334349
3.37701,0.05254358
3.380296,0.05247981
3.383588,0.05351264
3.386886,0.05477453
3.390191,0.05576825
3.393502,0.05738378
3.39682,0.05961294
3.400144,0.06145546
3.403475,0.06407501
3.406812,0.06677231
3.410156,0.06729237
3.413506,0.06743669
3.416862,0.06864206
3.420226,0.07068264
3.423596,0.07330986
3.426972,0.07469806
3.430355,0.07531476
3.433745,0.07688982
3.437141,0.07950461
3.440545,0.08308852
3.443954,0.08540791
3.447371,0.08477329
3.450794,0.08405016
3.454224,0.08484423
3.457661,0.08550802
3.461105,0.08581717
3.464556,0.08585412
3.468013,0.08502763
3.471477,0.08404659
3.474948,0.08338875
3.478426,0.08283971
3.481911,0.08246824
3.485403,0.08245767
3.488902,0.0837871
3.492408,0.08442787
3.495921,0.08189726
3.499441,0.0784941
3.502968,0.07565501
3.506502,0.07426639
3.510043,0.07654873
3.513592,0.08336245
3.517147,0.09385171
3.52071,0.10569301
3.52428,0.1162886
3.527857,0.12507465
3.531441,0.13390329
3.535032,0.14181854
3.538631,0.14679412
3.542237,0.15044055
3.545851,0.15410416
3.549471,0.15780704
3.553099,0.16158602
3.556735,0.16497269
3.560378,0.16783115
3.564028,0.17053255
3.567686,0.17333458
3.571351,0.17576786
3.575024,0.1771661
3.578704,0.17815405
3.582392,0.18014284
3.586088,0.1831638
3.589791,0.18612997
3.593501,0.18954296
3.59722,0.19334353
3.600946,0.19573002
3.604679,0.19728049
3.608421,0.19945708
3.61217,0.20236704
3.615926,0.2056136
3.619691,0.20821681
3.623463,0.21027359
3.627244,0.21235119
3.631032,0.21452548
3.634828,0.2169866
3.638632,0.2195423
3.642444,0.2220571
3.646263,0.22475478
3.650091,0.22771671
3.653927,0.23026937
3.657771,0.23235672
3.661623,0.23461976
3.665483,0.23704797
3.669351,0.23959875
3.673227,0.24223817
3.677111,0.24508728
3.681004,0.24805474
3.684905,0.25055146
3.688814,0.25271121
3.692731,0.25510996
3.696656,0.25768682
3.70059,0.2602628
3.704532,0.26292668
3.708483,0.26554924
3.712442,0.26803255
3.716409,0.27050515
3.720385,0.2730695
3.72437,0.27564243
3.728362,0.27809285
3.732364,0.28038178
3.736374,0.28262539
3.740392,0.28523391
3.744419,0.28784237
3.748455,0.28989314
3.752499,0.2917633
3.756553,0.29341715
3.760614,0.29483677
3.764685,0.2963643
3.768764,0.29796388
3.772853,0.2995339
3.77695,0.30079306
3.781056,0.3017136
3.78517,0.30248573
3.789294,0.30284673
3.793427,0.30261147
3.797568,0.30160567
3.801719,0.29980716
3.805879,0.29673579
3.810048,0.29089235
3.814225,0.28169442
3.818412,0.26961113
3.822609,0.25550346
3.826814,0.24121999
3.831029,0.22948202
3.835252,0.22197049
3.839486,0.21804861
3.843728,0.21622176
3.84798,0.21484349
3.852241,0.21220696
3.856512,0.20810977
3.860792,0.20440306
3.865081,0.2027577
3.86938,0.20321776
3.873689,0.20497427
3.878007,0.2070131
3.882334,0.20884812
3.886672,0.21095288
3.891019,0.21348309
3.895375,0.21629036
3.899742,0.21992715
3.904118,0.22482238
3.908504,0.2301519
3.9129,0.23317445
3.917305,0.23100205
3.921721,0.2232584
3.926146,0.2125948
3.930581,0.20263167
3.935027,0.19568902
3.939482,0.19211506
3.943948,0.18964588
3.948423,0.1858167
3.952909,0.18032694
3.957405,0.17369715
3.961911,0.16663981
3.966427,0.15979273
3.970954,0.15294276
3.975491,0.14616424
3.980038,0.14014239
3.984595,0.13582729
3.989163,0.1349742
3.993742,0.13730837
3.99833,0.1388371
4.00293,0.13629731
4.00754,0.13160579
4.01216,0.12937979
4.016791,0.13259224
4.021433,0.14404643
4.026086,0.16609231
4.030749,0.19465329
4.035423,0.22004714
4.040108,0.23670192
4.044804,0.24601798
4.04951,0.2519029
4.054228,0.2588877
4.058956,0.2699566
4.063695,0.28579848
4.068446,0.3055938
4.073207,0.32564764
4.07798,0.34223448
4.082764,0.35498478
4.087559,0.3650274
4.092365,0.3730815
4.097183,0.37971732
4.102012,0.38544649
4.106852,0.39071466
4.111703,0.39575953
4.116566,0.40042716
4.121441,0.40467514
4.126327,0.4085523
4.131224,0.41203065
4.136133,0.41515968
4.141054,0.41827667
4.145987,0.42113965
4.150931,0.42347651
4.155887,0.42579457
4.160854,0.42801461
4.165834,0.4299517
4.170826,0.43204846
4.175829,0.43400498
4.180844,0.43518653
4.185872,0.43639901
4.190911,0.43830779
4.195963,0.44067838
4.201026,0.44368014
4.206102,0.44781538
4.21119,0.45320546
4.216291,0.45876485
4.221404,0.46344908
4.226529,0.46761187
4.231666,0.47147636
4.236816,0.47413156
4.241979,0.47487427
4.247154,0.47384247
4.252341,0.46980931
4.257542,0.46683911
4.262754,0.47029204
4.26798,0.47677024
4.273219,0.47949225
4.27847,0.48033475
4.283734,0.48165017
4.289011,0.48298504
4.294301,0.48370439
4.299604,0.48389528
4.30492,0.48447937
4.31025,0.48465574
4.315592,0.4839886
4.320948,0.48334366
4.326317,0.4828175
4.331699,0.48281761
4.337095,0.48330759
4.342504,0.48351782
4.347926,0.48395855
4.353362,0.48505863
4.358811,0.48640199
4.364275,0.48779771
4.369751,0.48899592
4.375242,0.49034565
4.380746,0.49220522
4.386264,0.49399214
4.391796,0.49549389
4.397342,0.49710523
4.402902,0.49864158
4.408476,0.50008152
4.414064,0.50182092
4.419666,0.50349527
4.425282,0.50493283
4.430913,0.50656949
4.436558,0.50840126
4.442217,0.50963069
4.447891,0.51029559
4.453579,0.51115105
4.459281,0.51225161
4.464998,0.51299941
4.47073,0.51319757
4.476477,0.51354885
4.482238,0.51455057
4.488014,0.51609075
4.493805,0.51743135
4.499611,0.51859828
4.505431,0.51990712
4.511267,0.52120406
4.517118,0.52280123
4.522984,0.52468792
4.528865,0.52673147
4.534762,0.5289795
4.540674,0.5311499
4.546601,0.53327673
4.552543,0.53550571
4.558502,0.53807111
4.564475,0.54086681
4.570465,0.54369758
4.57647,0.54664949
4.582491,0.54910655
4.588527,0.55127757
4.59458,0.5532156
4.600648,0.55434932
4.606732,0.55532738
4.612833,0.55631898
4.618949,0.55730725
4.625082,0.55837927
4.631231,0.55913576
4.637397,0.55973281
4.643578,0.55997029
4.649777,0.55985801
4.655991,0.55978811
4.662223,0.55951193
4.668471,0.55918516
4.674735,0.55897156
4.681017,0.55847608
4.687315,0.55823399
4.69363,0.55918963
4.699962,0.56050633
4.706312,0.56118067
4.712678,0.56201874
4.719062,0.56327087
4.725463,0.56505053
4.731881,0.56929601
4.738316,0.57696069
4.744769,0.58699273
4.75124,0.59766288
4.757728,0.60713673
4.764234,0.61431
4.770758,0.61926033
4.777299,0.62284712
4.783859,0.62680272
4.790436,0.6309551
4.797032,0.63410097
4.803645,0.63687284
4.810277,0.63979061
4.816927,0.64341173
4.823596,0.64627489
4.830283,0.64763882
4.836988,0.65004738
4.843712,0.6525903
4.850455,0.65415465
4.857216,0.6560998
4.863996,0.65837359
4.870795,0.66064558
4.877613,0.66178576
4.884451,0.66207596
4.891307,0.66352903
4.898182,0.66551113
4.905077,0.66676685
4.911991,0.66785602
4.918925,0.66940798
4.925878,0.67113167
4.932851,0.67270105
4.939844,0.67398067
4.946856,0.67551523
4.953888,0.67786068
4.960941,0.67934123
4.968013,0.67968555
4.975105,0.68055398
4.982218,0.68172194
4.989351,0.68279116
4.996504,0.68396844
5.003678,0.6849053
5.010872,0.68648411
5.018087,0.68908092
5.025323,0.68994518
5.03258,0.68916613
5.039857,0.68900267
5.047156,0.68937097
5.054475,0.68998525
5.061816,0.69068457
5.069179,0.69143215
5.076562,0.69338223
5.083967,0.69502742
5.091394,0.69418597
5.098842,0.69345155
5.106312,0.69434955
5.113804,0.69613447
5.121318,0.69865939
5.128854,0.70105453
5.136412,0.70386864
5.143992,0.70767893
5.151595,0.70848921
5.15922,0.70693971
5.166868,0.70722092
5.174538,0.70841331
5.182231,0.70929392
5.189947,0.71122155
5.197686,0.71433406
5.205448,0.71714198
5.213233,0.718353
5.221041,0.71652353
5.228873,0.71592932
5.236728,0.71756341
5.244607,0.71755419
5.25251,0.71724326
5.260436,0.71773602
5.268386,0.71919223
5.27636,0.72086035
5.284358,0.72278663
5.292381,0.72418567
5.300428,0.72271877
5.308499,0.72151942
5.316595,0.72188405
5.324715,0.72219305
5.33286,0.72261217
5.341031,0.72735468
5.349226,0.7337972
5.357446,0.73096202
5.365692,0.72533948
5.373962,0.724341
5.382259,0.72401885
5.390581,0.72348465
5.398928,0.72393772
5.407302,0.72701983
5.415701,0.73428681
5.424127,0.73558118
5.432579,0.72733826
5.441057,0.72305922
5.449561,0.72380557
5.458092,0.72813431
5.46665,0.73225706
5.475234,0.72944763
5.483846,0.72219319
5.492484,0.71325827
5.50115,0.7081615
5.509843,0.70482192
5.518564,0.70198056
5.527312,0.69519616
5.536087,0.68421237
5.544891,0.67831815
5.553723,0.66740312
5.562582,0.64514259
5.57147,0.63589457
5.580387,0.6926976
5.589332,0.76263853
5.598305,0.76957201
5.607307,0.75873231
5.616339,0.74427637
5.625399,0.73400827
5.634489,0.73714442
5.643607,0.74009912
5.652756,0.73169347
5.661934,0.72855356
5.671142,0.73367981
5.680379,0.7355365
5.689647,0.73412922
5.698945,0.73803126
5.708274,0.74843329
5.717633,0.75001489
5.727022,0.74423261
5.736443,0.74590446
5.745894,0.74879189
5.755377,0.75671498
5.76489,0.76680998
5.774436,0.75620822
5.784012,0.74308766
5.793621,0.74115166
5.803262,0.74620765
5.812934,0.76312891
5.822639,0.77499463
5.832376,0.76094079
5.842146,0.74959888
5.851948,0.7564569
5.861783,0.76814621
5.871652,0.78263227
5.881553,0.79535579
5.891488,0.78820483
5.901457,0.77151765
5.911459,0.76388323
5.921495,0.77362816
5.931565,0.79353666
5.94167,0.78906817
5.951809,0.77503455
5.961982,0.77858016
5.97219,0.7848291
5.982433,0.78865447
5.992711,0.7849408
6.003025,0.77956757
6.013374,0.78015541
6.023759,0.77727229
6.034179,0.79316873
6.044636,0.81875233
6.055129,0.81236829
6.065658,0.80713552
6.076224,0.80136677
6.086826,0.7892864
6.097466,0.79777105
6.108143,0.81383361
6.118857,0.80583144
6.129609,0.79596633
6.140398,0.80121711
6.151226,0.80731539
6.162091,0.80701642
6.172996,0.81056784
6.183938,0.81310165
6.19492,0.8048415
6.20594,0.80227233
6.217,0.80402073
6.228099,0.8037248
6.239237,0.80396907
6.250416,0.80457914
6.261635,0.80637374
6.272893,0.80786486
6.284193,0.80868697
6.295533,0.80973831
6.306914,0.81061209
6.318336,0.81256604
6.329799,0.82293784
6.341304,0.83142719
6.352851,0.82941036
6.36444,0.83216407
6.376071,0.83230008
6.387745,0.83230189
6.399461,0.85173092
6.411221,0.87118573
6.423023,0.85927713
6.434869,0.8470993
6.446759,0.84581515
6.458693,0.85053134
6.470671,0.86573087
6.482693,0.88160088
6.49476,0.87510005
6.506872,0.86503426
6.519029,0.86366156
6.531231,0.86258261
6.54348,0.867463
6.555774,0.8766202
6.568114,0.88180578
6.580501,0.88046517
6.592934,0.8755186
6.605415,0.87344468
6.617943,0.88426461
6.630518,0.89387635
6.643141,0.87941477
6.655812,0.87131494
6.668532,0.87705979
6.6813,0.87614467
6.694117,0.87606206
6.706983,0.88216553
6.719899,0.87931132
6.732864,0.87300821
6.745879,0.87268893
6.758945,0.87773067
6.772062,0.88751415
6.785229,0.89032609
6.798448,0.88261232
6.811718,0.88153623
6.825039,0.8833488
6.838413,0.88767967
6.85184,0.8997781
6.865319,0.89683891
6.878851,0.88609729
6.892437,0.88561829
6.906076,0.88591268
6.919769,0.8833132
6.933517,0.88573517
6.947319,0.89371759
6.961176,0.89488979
6.975089,0.89174681
6.989057,0.89213466
7.003081,0.89245438
7.017161,0.89496658
7.031298,0.90131487
7.045492,0.9019186
7.059743,0.8960391
7.074052,0.89406954
7.088419,0.89585849
7.102845,0.89835196
7.117329,0.89978378
7.131872,0.90195857
7.146475,0.9061849
7.161137,0.90680559
7.17586,0.90440457
7.190643,0.90586904
7.205487,0.90754186
7.220393,0.90636692
7.23536,0.90726045
7.25039,0.91044924
7.265481,0.91351716
7.280636,0.91394207
7.295854,0.91343391
7.311135,0.91540062
7.326481,0.91886179
7.341891,0.91942192
7.357366,0.91828421
7.372906,0.9186752
7.388512,0.91951271
7.404184,0.92054158
7.419922,0.92161237
7.435728,0.92388904
7.451601,0.9273841
7.467541,0.92826547
7.48355,0.92719703
7.499628,0.92727135
7.515774,0.92815266
7.53199,0.92925638
7.548277,0.93069221
7.564633,0.93218926
7.581061,0.93316635
7.59756,0.93387992
7.614131,0.93459977
7.630774,0.93509406
7.647491,0.93554345
7.66428,0.93610286
7.681143,0.93685016
7.69808,0.93774061
7.715093,0.93845307
7.73218,0.93926734
7.749343,0.9403409
7.766583,0.94125561
7.783899,0.94202708
7.801292,0.94283093
7.818764,0.94370812
7.836313,0.94478742
7.853942,0.94615522
7.871649,0.9473563
7.889437,0.94836971
7.907305,0.94965315
7.925254,0.95072625
7.943285,0.95154147
7.961398,0.95246681
7.979594,0.95311854
7.997872,0.95370328
8.016235,0.95458161
8.034682,0.95550478
8.053214,0.95635176
8.071832,0.95704919
8.090535,0.95767819
8.109326,0.95831738
8.128204,0.95896328
8.147169,0.95973259
8.166224,0.96043663
8.185368,0.96091444
8.204601,0.96144912
8.223925,0.96223181
8.24334,0.96302347
8.262847,0.96379253
8.282446,0.96457571
8.302139,0.96529789
8.321925,0.96598956
8.341805,0.96655961
8.361781,0.96726887
8.381852,0.96810622
8.40202,0.96884012
8.422285,0.96959324
8.442648,0.9702419
8.463109,0.97080393
8.48367,0.9714426
8.504331,0.97195666
8.525092,0.97237638
8.545955,0.97295159
8.566921,0.97354457
8.587989,0.97402983
8.609161,0.97443316
8.630437,0.97487871
8.651819,0.97546923
8.673307,0.97613927
8.694902,0.97668802
8.716604,0.97710301
8.738415,0.97758546
8.760335,0.97817714
8.782365,0.97878185
8.804507,0.97923024
8.82676,0.97975124
8.849125,0.98041169
8.871604,0.98105376
8.894198,0.98177227
8.916907,0.98231639
8.939732,0.98263564
8.962673,0.98305093
8.985733,0.9834769
9.008912,0.98366756
9.03221,0.98376634
9.055629,0.98381817
9.07917,0.98364502
9.102833,0.98354265
9.12662,0.98359938
9.150531,0.98362561
9.174568,0.98364684
9.198731,0.98341752
9.223022,0.98284646
9.247441,0.98245189
9.27199,0.98256947
9.296669,0.98267794
9.32148,0.98249994
9.346423,0.98266932
9.3715,0.98328544
9.396712,0.98372954
9.42206,0.98393767
9.447545,0.9842529
9.473167,0.98476197
9.498929,0.98523668
9.524832,0.98547117
9.550876,0.98564373
9.577062,0.98594494
9.603393,0.98622702
9.629868,0.98643079
9.65649,0.98660933
9.683259,0.98679206
9.710176,0.98692204
9.737244,0.98693361
9.764463,0.98694392
9.791834,0.98689696
9.819359,0.98687129
9.847039,0.98697517
9.874875,0.98698012
9.902869,0.98706801
9.931022,0.98730847
9.959336,0.98746037
9.987811,0.98768524
10.016449,0.98788151
10.045252,0.98787906
10.074221,0.98803584
10.103357,0.98844915
10.132662,0.98880953
10.162137,0.98909091
10.191784,0.98936507
10.221604,0.9896396
10.2516,0.99000641
10.281771,0.99041667
10.312121,0.99074028
10.34265,0.99081315
10.37336,0.99083778
10.404253,0.99103638
10.435331,0.99118409
10.466594,0.99129791
10.498045,0.9914051
10.529686,0.99136256
10.561517,0.99129498
10.593542,0.99135746
10.625761,0.99135038
10.658176,0.99127676
10.69079,0.99132039
10.723604,0.99125723
10.756619,0.99117739
10.789839,0.99120514
10.823264,0.99104242
10.856896,0.99086944
10.890738,0.99095015
10.924791,0.99094592
10.959058,0.99077529
10.993541,0.99078733
11.02824,0.99093168
11.06316,0.99111034
11.098301,0.9914422
11.133665,0.99183822
11.169256,0.9919891
11.205075,0.99178594
11.241124,0.99160501
11.277405,0.99184001
11.313921,0.99228428
11.350675,0.99240172
11.387667,0.99215294
11.424901,0.99207817
11.46238,0.99232573
11.500105,0.99244179
11.538079,0.99252
11.576304,0.99279966
11.614783,0.9929492
11.653518,0.99291414
11.692513,0.99315814
11.731769,0.99375778
11.77129,0.99424454
11.811077,0.99451728
11.851134,0.99484539
11.891464,0.99522739
11.932068,0.99555809
11.972951,0.99598008
12.014114,0.99641856
12.055562,0.99669939
12.097296,0.99685565
12.13932,0.99694977
12.181636,0.997033
12.224249,0.99712048
12.26716,0.99719437
12.310373,0.99719986
12.353892,0.99733771
12.397719,0.99751766
12.441859,0.99731165
12.486313,0.99693008
12.531086,0.9969439
12.57618,0.99718313
12.621601,0.99710952
12.66735,0.9969461
12.713432,0.99693308
12.75985,0.99709785
12.806608,0.99751357
12.85371,0.99768298
12.901159,0.9976046
12.94896,0.99775351
12.997116,0.99797344
13.045631,0.99797755
13.09451,0.99821356
13.143756,0.99879155
13.193373,0.99869336
13.243366,0.99846586
13.29374,0.9988854
13.344497,0.99926985
13.395644,0.99963451
13.447183,0.99985665
13.499121,0.99981977
13.551461,0.99988927
13.604208,0.99994104
13.657367,0.0100001696
13.710943,0.0100013616
13.764941,0.0100004677
13.819365,0.99970934
13.874221,0.99950061
13.929515,0.99943835
13.98525,0.99909827
14.041433,0.99868492
14.098068,0.9986135
14.155163,0.99881526
14.212721,0.99901357
14.270749,0.99915515
14.329252,0.99888109
14.388237,0.99854221
14.447709,0.99910647
14.507674,0.99963662
14.568139,0.99965899
14.629109,0.99971044
14.690592,0.99988271
14.752594,0.010004135
14.815121,0.0100106663
14.878179,0.9988333
14.941777,0.99556329
15.00592,0.99863092
15.070616,0.0100238372
15.135871,0.0100325792
15.201695,0.0100432317
15.268092,0.0100459887
15.335072,0.0100482266
15.402642,0.0100519821
15.47081,0.0100456321
15.539583,0.0100025815
15.60897,0.99343808
15.678979,0.98582345
15.749619,0.97450361
15.820897,0.95541893
15.892824,0.9295769
15.965407,0.90722571
