Database of Origin,University of Winnipeg Spectrophotometer Facility
Sample Description,"HOSERLab master pyroxenes, FTIR data"
Date Added,2016-12-14 03:34:49.865044

Data ID,FTIR_PYX_12         
Sample ID,PYX110
Mineral Name,Orthopyroxene
Grain Size,45-90 um
Viewing Geometry,"i=30, e=0"
Material Class,Inosilicate

Wavelength
2000.56,0.21952857
2001.142,0.21986446
2001.725,0.22018346
2002.307,0.22047217
2002.891,0.22070953
2003.474,0.22092215
2004.058,0.22115729
2004.643,0.22140716
2005.227,0.22165169
2005.812,0.22193582
2006.397,0.22231003
2006.983,0.22274688
2007.569,0.22317966
2008.155,0.22356431
2008.742,0.22386398
2009.329,0.22407209
2009.916,0.22425559
2010.504,0.22449263
2011.092,0.22479162
2011.68,0.22513273
2012.269,0.22551788
2012.858,0.2259291
2013.447,0.22631473
2014.037,0.22665877
2014.627,0.22697997
2015.217,0.22726971
2015.808,0.22751514
2016.399,0.22776394
2016.99,0.22806902
2017.582,0.22843455
2018.174,0.22886903
2018.766,0.22939461
2019.359,0.2299516
2019.952,0.23041991
2020.546,0.23075699
2021.139,0.23101569
2021.733,0.23123636
2022.328,0.23145649
2022.923,0.2317594
2023.518,0.23218108
2024.113,0.23263889
2024.709,0.23305712
2025.305,0.23345646
2025.902,0.2338622
2026.499,0.23424008
2027.096,0.23458431
2027.693,0.23493126
2028.291,0.23527742
2028.89,0.23560476
2029.488,0.23596817
2030.087,0.23642091
2030.686,0.23690473
2031.286,0.23732158
2031.886,0.23767496
2032.486,0.23805711
2033.087,0.23854378
2033.688,0.23913765
2034.289,0.23976045
2034.891,0.24028082
2035.493,0.24062165
2036.096,0.2408389
2036.698,0.24105733
2037.302,0.24135607
2037.905,0.24174995
2038.509,0.24224005
2039.113,0.24283263
2039.718,0.24351282
2040.322,0.24419847
2040.928,0.24474814
2041.533,0.24507748
2042.139,0.24525671
2042.746,0.24544093
2043.352,0.24573667
2043.959,0.24616432
2044.567,0.24668222
2045.174,0.24720928
2045.782,0.24769422
2046.391,0.24817602
2047.0,0.24868377
2047.609,0.24914053
2048.218,0.24948141
2048.828,0.24979026
2049.438,0.25017373
2050.049,0.25061042
2050.66,0.25103933
2051.271,0.25146862
2051.883,0.25189253
2052.495,0.25225857
2053.107,0.25258012
2053.72,0.25293223
2054.333,0.25331508
2054.947,0.25370842
2055.56,0.25418701
2056.175,0.25479616
2056.789,0.25541149
2057.404,0.2559122
2058.019,0.25634951
2058.635,0.25680043
2059.251,0.25724218
2059.867,0.25770012
2060.484,0.25827506
2061.101,0.25893038
2061.718,0.25948183
2062.336,0.25985833
2062.954,0.26014766
2063.573,0.26041339
2064.192,0.26069039
2064.811,0.26108239
2065.431,0.26161936
2066.051,0.26214017
2066.671,0.26252507
2067.292,0.26288875
2067.913,0.26336165
2068.534,0.26388613
2069.156,0.2643752
2069.778,0.26485929
2070.401,0.26535297
2071.024,0.26579981
2071.647,0.26622358
2072.271,0.26671646
2072.895,0.26725593
2073.519,0.26773642
2074.144,0.26816178
2074.769,0.26861636
2075.395,0.26910359
2076.02,0.2695886
2076.647,0.27010186
2077.273,0.27064911
2077.9,0.27115085
2078.528,0.27160816
2079.155,0.27216006
2079.784,0.27287554
2080.412,0.27363987
2081.041,0.27432689
2081.67,0.27492329
2082.3,0.27544548
2082.93,0.27589728
2083.56,0.27632694
2084.191,0.27677916
2084.822,0.27721661
2085.454,0.277598
2086.085,0.27798118
2086.718,0.27843679
2087.35,0.27895864
2087.983,0.27953464
2088.617,0.28019194
2089.251,0.28090439
2089.885,0.28157947
2090.519,0.28216938
2091.154,0.28269826
2091.789,0.28317861
2092.425,0.28361482
2093.061,0.28404316
2093.697,0.28448016
2094.334,0.28490273
2094.971,0.28534629
2095.609,0.28590724
2096.247,0.28659631
2096.885,0.28731094
2097.524,0.28798298
2098.163,0.28862415
2098.803,0.28923996
2099.443,0.28982786
2100.083,0.29040923
2100.723,0.29095019
2101.364,0.29134525
2102.006,0.29159825
2102.648,0.29189808
2103.29,0.29239953
2103.932,0.29305876
2104.575,0.29374799
2105.219,0.29440182
2105.862,0.29500038
2106.506,0.29554226
2107.151,0.29607419
2107.796,0.29664337
2108.441,0.29721276
2109.087,0.29770794
2109.733,0.29811716
2110.379,0.29848816
2111.026,0.29885986
2111.673,0.29926731
2112.321,0.29975467
2112.969,0.30033244
2113.617,0.300949
2114.266,0.30154311
2114.915,0.30211267
2115.565,0.30270984
2116.215,0.30334833
2116.865,0.30397967
2117.516,0.30459669
2118.167,0.30528271
2118.819,0.30607463
2119.471,0.3068651
2120.123,0.3075523
2120.776,0.30818899
2121.429,0.30886063
2122.082,0.30954146
2122.736,0.31019064
2123.391,0.31082481
2124.045,0.31140409
2124.7,0.31184871
2125.356,0.3122386
2126.012,0.31276428
2126.668,0.31344457
2127.325,0.31414418
2127.982,0.3148376
2128.64,0.31558321
2129.297,0.3163357
2129.956,0.31705364
2130.614,0.31784455
2131.274,0.31874092
2131.933,0.31953654
2132.593,0.32008896
2133.253,0.32053962
2133.914,0.32104227
2134.575,0.3215665
2135.237,0.32210839
2135.899,0.32276423
2136.561,0.32349882
2137.224,0.32415049
2137.887,0.32471676
2138.55,0.3253337
2139.214,0.32601216
2139.879,0.32666495
2140.544,0.32731825
2141.209,0.32806264
2141.874,0.3288936
2142.54,0.32976377
2143.207,0.33066987
2143.873,0.33154369
2144.541,0.33223395
2145.208,0.33269797
2145.876,0.33306958
2146.545,0.33349358
2147.214,0.33402983
2147.883,0.33469563
2148.553,0.33546778
2149.223,0.33625384
2149.893,0.33695782
2150.564,0.33756177
2151.235,0.33811936
2151.907,0.33870478
2152.579,0.3393694
2153.252,0.34009671
2153.925,0.34082697
2154.598,0.34153923
2155.272,0.34225308
2155.946,0.34295096
2156.621,0.34358787
2157.296,0.34416912
2157.972,0.3447422
2158.647,0.34534113
2159.324,0.34600978
2160.001,0.34680351
2160.678,0.34768818
2161.355,0.3485325
2162.033,0.34927181
2162.712,0.34997412
2163.39,0.35069693
2164.07,0.35140493
2164.749,0.35207091
2165.429,0.35272664
2166.11,0.35338953
2166.791,0.35405471
2167.472,0.3547608
2168.154,0.35553394
2168.836,0.35628597
2169.519,0.35691284
2170.202,0.35746142
2170.885,0.35805144
2171.569,0.35869643
2172.254,0.35933611
2172.938,0.3599811
2173.624,0.36067403
2174.309,0.36138745
2174.995,0.36209237
2175.682,0.3628385
2176.368,0.36366212
2177.056,0.36451138
2177.743,0.36533911
2178.432,0.36614356
2179.12,0.36685441
2179.809,0.36735166
2180.499,0.36766671
2181.189,0.36800052
2181.879,0.36851079
2182.57,0.36921278
2183.261,0.37005618
2183.952,0.37094488
2184.644,0.37173178
2185.337,0.37236509
2186.03,0.37297357
2186.723,0.37369255
2187.417,0.37450833
2188.111,0.37534452
2188.806,0.37614805
2189.501,0.37684251
2190.196,0.37737111
2190.892,0.37782719
2191.589,0.37837408
2192.285,0.37904228
2192.983,0.37975357
2193.68,0.38048288
2194.379,0.381242
2195.077,0.38200516
2195.776,0.38277811
2196.476,0.38361967
2197.175,0.38450765
2197.876,0.38533044
2198.577,0.38605283
2199.278,0.38673499
2199.979,0.38738174
2200.682,0.38795637
2201.384,0.38850694
2202.087,0.38910787
2202.79,0.38972877
2203.494,0.39030866
2204.199,0.39089473
2204.903,0.39159031
2205.609,0.39241778
2206.314,0.39332726
2207.02,0.39425217
2207.727,0.39510843
2208.434,0.39582041
2209.141,0.39640485
2209.849,0.39697261
2210.557,0.39760633
2211.266,0.39829031
2211.975,0.39898589
2212.685,0.39971563
2213.395,0.400509
2214.106,0.40131813
2214.817,0.40207177
2215.528,0.402768
2216.24,0.4034201
2216.952,0.4039887
2217.665,0.40449364
2218.379,0.40508183
2219.092,0.40582512
2219.806,0.40657219
2220.521,0.40716976
2221.236,0.40766556
2221.952,0.40814383
2222.668,0.40859545
2223.384,0.40908568
2224.101,0.40976985
2224.818,0.41061867
2225.536,0.41141514
2226.254,0.41207596
2226.973,0.41267752
2227.692,0.413224
2228.412,0.4137128
2229.132,0.41428664
2229.853,0.41500735
2230.574,0.41569816
2231.295,0.41627952
2232.017,0.41693661
2232.74,0.41772898
2233.462,0.41844082
2234.186,0.4189865
2234.91,0.41954963
2235.634,0.42021204
2236.359,0.42087586
2237.084,0.42154541
2237.809,0.4222809
2238.536,0.42297596
2239.262,0.42354051
2239.989,0.42410471
2240.717,0.42476281
2241.445,0.42539435
2242.173,0.42594346
2242.902,0.42651367
2243.631,0.42708339
2244.361,0.42752038
2245.092,0.42790044
2245.822,0.42842553
2246.554,0.42910388
2247.285,0.42982998
2248.017,0.43061823
2248.75,0.43145659
2249.483,0.4321909
2250.217,0.43276539
2250.951,0.43330378
2251.686,0.4338502
2252.421,0.43434111
2253.156,0.43484476
2253.892,0.43548838
2254.628,0.43621064
2255.365,0.43688786
2256.103,0.43755013
2256.841,0.43823693
2257.579,0.43884746
2258.318,0.43932961
2259.057,0.43978323
2259.797,0.4402726
2260.537,0.44077869
2261.278,0.44135193
2262.019,0.44205117
2262.761,0.44277504
2263.503,0.44338397
2264.246,0.44389371
2264.989,0.44436516
2265.732,0.44475902
2266.477,0.44504695
2267.221,0.44529769
2267.966,0.44556487
2268.712,0.44585347
2269.458,0.44620656
2270.204,0.44666786
2270.951,0.44718696
2271.699,0.44770121
2272.447,0.44821937
2273.195,0.44872394
2273.944,0.44912788
2274.694,0.44941657
2275.444,0.44969449
2276.194,0.45002659
2276.945,0.45037477
2277.696,0.45070981
2278.448,0.45106816
2279.201,0.45147521
2279.954,0.45190134
2280.707,0.45227249
2281.461,0.45247883
2282.215,0.45243992
2282.97,0.45221729
2283.725,0.45198035
2284.481,0.45182511
2285.237,0.45171958
2285.994,0.45165193
2286.752,0.45170685
2287.509,0.45194888
2288.268,0.45232912
2289.026,0.45277139
2289.786,0.45328047
2290.545,0.4539246
2291.306,0.45476159
2292.067,0.45580415
2292.828,0.45698408
2293.59,0.45813071
2294.352,0.45906126
2295.115,0.45971724
2295.878,0.46014629
2296.642,0.46039748
2297.406,0.46054269
2298.171,0.46072163
2298.936,0.4610247
2299.702,0.4613751
2300.468,0.46164842
2301.235,0.46182121
2302.002,0.46190403
2302.77,0.4618516
2303.539,0.46166339
2304.307,0.46143769
2305.077,0.46121583
2305.847,0.46091519
2306.617,0.46049402
2307.388,0.46003569
2308.159,0.45962614
2308.931,0.45928633
2309.703,0.45905083
2310.476,0.45897676
2311.25,0.45908497
2312.024,0.45941655
2312.798,0.46011106
2313.573,0.46127815
2314.348,0.4628354
2315.124,0.46455991
2315.901,0.46625738
2316.678,0.46780995
2317.455,0.46913675
2318.234,0.47019534
2319.012,0.47101574
2319.791,0.47167805
2320.571,0.47227392
2321.351,0.47290055
2322.131,0.47366124
2322.913,0.47461789
2323.694,0.47574894
2324.476,0.47698741
2325.259,0.47828023
2326.042,0.4795602
2326.826,0.48071208
2327.61,0.48166771
2328.395,0.48250483
2329.18,0.48333995
2329.966,0.48416777
2330.753,0.48490989
2331.54,0.48556545
2332.327,0.4861937
2333.115,0.486845
2333.903,0.48757632
2334.692,0.48840514
2335.482,0.48920624
2336.272,0.4898385
2337.062,0.49037185
2337.854,0.49098313
2338.645,0.49168434
2339.437,0.49237912
2340.23,0.49307226
2341.023,0.49378273
2341.817,0.49441513
2342.611,0.49492573
2343.406,0.49543185
2344.201,0.49599878
2344.997,0.49655445
2345.794,0.49709005
2346.591,0.49767627
2347.388,0.49828014
2348.186,0.49885362
2348.985,0.49949622
2349.784,0.5002418
2350.583,0.50088216
2351.384,0.50127883
2352.184,0.50160238
2352.986,0.50203164
2353.787,0.50252974
2354.59,0.50305883
2355.393,0.50365799
2356.196,0.50424094
2357.0,0.50468688
2357.804,0.50511886
2358.609,0.50571505
2359.415,0.50637599
2360.221,0.50691201
2361.028,0.50735168
2361.835,0.50776121
2362.643,0.50803961
2363.451,0.50815864
2364.26,0.50829242
2365.069,0.50853653
2365.879,0.50879774
2366.69,0.50904708
2367.501,0.5093645
2368.312,0.50971827
2369.125,0.50998523
2369.937,0.51015248
2370.751,0.51027596
2371.564,0.510359
2372.379,0.51042561
2373.194,0.51055891
2374.009,0.51076392
2374.825,0.51094646
2375.642,0.51107909
2376.459,0.51122422
2377.276,0.51141648
2378.095,0.51164916
2378.913,0.51191016
2379.733,0.51213263
2380.553,0.51222238
2381.373,0.51220759
2382.194,0.51224617
2383.016,0.51246382
2383.838,0.51287281
2384.661,0.51339161
2385.484,0.51386114
2386.308,0.51414659
2387.132,0.51429629
2387.957,0.51448296
2388.783,0.51477221
2389.609,0.51511155
2390.435,0.51551643
2391.263,0.51604894
2392.09,0.51665437
2392.919,0.51721455
2393.748,0.517731
2394.577,0.51828426
2395.407,0.51887545
2396.238,0.51946188
2397.069,0.52006698
2397.901,0.52070786
2398.733,0.52132787
2399.566,0.52191387
2400.399,0.52255855
2401.233,0.523289
2402.068,0.52399276
2402.903,0.52459796
2403.739,0.52516529
2404.575,0.52571659
2405.412,0.52615722
2406.25,0.52647914
2407.088,0.52683268
2407.926,0.52727334
2408.766,0.52764422
2409.606,0.52783616
2410.446,0.52796704
2411.287,0.5281765
2412.128,0.52845254
2412.971,0.52875056
2413.813,0.52907642
2414.657,0.52939275
2415.5,0.52965149
2416.345,0.52994591
2417.19,0.5303958
2418.036,0.53088589
2418.882,0.53116231
2419.729,0.5311726
2420.576,0.53107122
2421.424,0.53096928
2422.272,0.5309119
2423.122,0.53101004
2423.971,0.53133844
2424.822,0.5317696
2425.673,0.53211698
2426.524,0.53237986
2427.376,0.53267482
2428.229,0.53302301
2429.082,0.53334481
2429.936,0.53357591
2430.791,0.53367065
2431.646,0.53358967
2432.501,0.53340857
2433.358,0.53335069
2434.214,0.53356007
2435.072,0.53391915
2435.93,0.53423142
2436.789,0.53448484
2437.648,0.53477653
2438.508,0.53508024
2439.368,0.53531008
2440.229,0.53550291
2441.091,0.53573164
2441.953,0.53594921
2442.816,0.53611937
2443.679,0.53633383
2444.543,0.53661818
2445.408,0.53684707
2446.273,0.53702201
2447.139,0.53733352
2448.006,0.53779784
2448.873,0.53815704
2449.74,0.53824805
2450.609,0.53814688
2451.478,0.53793138
2452.347,0.53766938
2453.217,0.53756518
2454.088,0.53775048
2454.959,0.53805262
2455.831,0.53828349
2456.704,0.53850512
2457.577,0.53876118
2458.451,0.53889664
2459.325,0.53885705
2460.2,0.53878309
2461.076,0.53871812
2461.952,0.53861889
2462.829,0.53861693
2463.707,0.53884047
2464.585,0.53911876
2465.464,0.53925627
2466.343,0.53935903
2467.223,0.53957501
2468.104,0.53985659
2468.985,0.54020399
2469.867,0.54070084
2470.749,0.54120377
2471.632,0.54147747
2472.516,0.54161316
2473.4,0.54183127
2474.285,0.54206242
2475.171,0.54218561
2476.057,0.54234888
2476.944,0.54263816
2477.832,0.5428408
2478.72,0.54286925
2479.608,0.54294197
2480.498,0.5431448
2481.388,0.5433383
2482.278,0.54355063
2483.17,0.54389291
2484.062,0.54417423
2484.954,0.54415795
2485.847,0.54400578
2486.741,0.54398659
2487.636,0.54408016
2488.531,0.54422726
2489.427,0.54453278
2490.323,0.54490215
2491.22,0.54498947
2492.118,0.54474666
2493.016,0.54451721
2493.915,0.54449106
2494.814,0.54456083
2495.715,0.54468226
2496.615,0.54488197
2497.517,0.54502239
2498.419,0.54500827
2499.322,0.54502874
2500.225,0.5452383
2501.129,0.54548144
2502.034,0.54561643
2502.939,0.54575061
2503.845,0.54591078
2504.752,0.54592522
2505.659,0.5458226
2506.567,0.54588783
2507.476,0.54616967
2508.385,0.54642121
2509.295,0.54658445
2510.206,0.54684232
2511.117,0.54717102
2512.029,0.54735321
2512.942,0.54740389
2513.855,0.54747465
2514.769,0.54746327
2515.683,0.54727154
2516.598,0.54719188
2517.514,0.54748417
2518.431,0.54789343
2519.348,0.54813273
2520.266,0.54836649
2521.184,0.54869286
2522.103,0.54875555
2523.023,0.54842002
2523.944,0.54812613
2524.865,0.54809349
2525.787,0.54801127
2526.709,0.54788517
2527.632,0.54814078
2528.556,0.54866542
2529.48,0.54883862
2530.406,0.54867117
2531.331,0.54875074
2532.258,0.54907549
2533.185,0.54917466
2534.113,0.54920306
2535.041,0.54956735
2535.971,0.54995154
2536.9,0.54996828
2537.831,0.55010766
2538.762,0.55076075
2539.694,0.55127196
2540.627,0.5510186
2541.56,0.55053156
2542.494,0.55052014
2543.428,0.5507475
2544.364,0.55087052
2545.3,0.55117181
2546.236,0.55160124
2547.174,0.55150296
2548.112,0.55095514
2549.05,0.55091027
2549.99,0.55146094
2550.93,0.55159629
2551.87,0.55110465
2552.812,0.55098466
2553.754,0.55145551
2554.697,0.55159627
2555.64,0.55126989
2556.585,0.55128046
2557.529,0.5516299
2558.475,0.55146288
2559.421,0.55088691
2560.368,0.55086304
2561.316,0.55112901
2562.264,0.55050846
2563.213,0.54964819
2564.163,0.54998027
2565.113,0.55090344
2566.065,0.55110918
2567.016,0.55106209
2567.969,0.55158105
2568.922,0.55186508
2569.876,0.55117656
2570.831,0.55086246
2571.786,0.55173887
2572.742,0.55225284
2573.699,0.55147118
2574.656,0.55104944
2575.615,0.55167418
2576.573,0.55170314
2577.533,0.55089831
2578.493,0.55110792
2579.454,0.5522983
2580.416,0.55250567
2581.378,0.55177085
2582.342,0.55193518
2583.305,0.55261771
2584.27,0.55206339
2585.235,0.55139073
2586.201,0.55218886
2587.168,0.55298494
2588.135,0.5521457
2589.103,0.55146779
2590.072,0.55246552
2591.042,0.55379184
2592.012,0.55439503
2592.983,0.55539498
2593.955,0.55649832
2594.927,0.55497597
2595.9,0.55190426
2596.874,0.55117373
2597.849,0.55232166
2598.824,0.55287739
2599.8,0.55276942
2600.777,0.55325689
2601.755,0.55386906
2602.733,0.55347289
2603.712,0.55305017
2604.692,0.55360608
2605.672,0.55375072
2606.653,0.55271638
2607.635,0.5522086
2608.618,0.55281739
2609.601,0.55314647
2610.585,0.55288366
2611.57,0.55318004
2612.556,0.55406343
2613.542,0.55450615
2614.529,0.55451408
2615.517,0.55471615
2616.505,0.55471436
2617.495,0.55408619
2618.485,0.55368466
2619.475,0.55392533
2620.467,0.55385757
2621.459,0.55325896
2622.452,0.55311695
2623.446,0.55369367
2624.44,0.55418108
2625.435,0.55416939
2626.431,0.55407628
2627.428,0.55418623
2628.426,0.55435208
2629.424,0.55454553
2630.423,0.55472607
2631.423,0.55455763
2632.423,0.55403424
2633.424,0.55361732
2634.426,0.55355363
2635.429,0.55363752
2636.432,0.55369185
2637.437,0.5537513
2638.442,0.55382314
2639.447,0.55378238
2640.454,0.55357267
2641.461,0.55336631
2642.469,0.55335964
2643.478,0.55344397
2644.488,0.55327505
2645.498,0.55280212
2646.509,0.55237986
2647.521,0.55222045
2648.534,0.55222046
2649.547,0.55233386
2650.561,0.55250357
2651.576,0.55235195
2652.592,0.55168346
2653.609,0.55102052
2654.626,0.55080457
2655.644,0.55069199
2656.663,0.55040852
2657.682,0.55019345
2658.703,0.54993562
2659.724,0.54910721
2660.746,0.54807076
2661.768,0.54792606
2662.792,0.54872374
2663.816,0.54941398
2664.841,0.54946148
2665.867,0.54921285
2666.894,0.54885298
2667.921,0.54838253
2668.949,0.5480378
2669.978,0.54723804
2671.008,0.54488471
2672.038,0.54178248
2673.07,0.54001057
2674.102,0.53983987
2675.135,0.53981341
2676.168,0.53882908
2677.203,0.53698657
2678.238,0.53450968
2679.274,0.53152287
2680.311,0.52871201
2681.349,0.52635646
2682.387,0.52363434
2683.426,0.51985076
2684.467,0.51546107
2685.507,0.51100786
2686.549,0.50618395
2687.591,0.50082303
2688.635,0.49546209
2689.679,0.49036199
2690.724,0.48524917
2691.769,0.4799198
2692.816,0.47396266
2693.863,0.46622638
2694.911,0.45616302
2695.96,0.44528883
2697.01,0.43528952
2698.06,0.4261403
2699.112,0.41711246
2700.164,0.40779707
2701.217,0.39790813
2702.27,0.38745374
2703.325,0.37731791
2704.38,0.36852225
2705.437,0.36116398
2706.494,0.35503997
2707.552,0.35057327
2708.61,0.34797433
2709.67,0.34575212
2710.73,0.34172363
2711.791,0.33589709
2712.853,0.33008235
2713.916,0.32479003
2714.98,0.31907698
2716.044,0.31213729
2717.109,0.30391041
2718.175,0.29522632
2719.242,0.28843491
2720.31,0.28677989
2721.379,0.29112721
2722.448,0.29841365
2723.518,0.30514722
2724.589,0.30988245
2725.661,0.31202648
2726.734,0.31114907
2727.808,0.30785849
2728.882,0.30347398
2729.958,0.29905456
2731.034,0.29555867
2732.111,0.29435774
2733.188,0.29628983
2734.267,0.30016814
2735.347,0.30350117
2736.427,0.30532456
2737.508,0.30657267
2738.59,0.30780456
2739.673,0.30821764
2740.757,0.30696017
2741.841,0.30428661
2742.927,0.30110155
2744.013,0.29832607
2745.1,0.29672109
2746.188,0.29626175
2747.277,0.29608769
2748.367,0.29563065
2749.457,0.29524666
2750.549,0.2952765
2751.641,0.29551051
2752.734,0.29587363
2753.828,0.29649824
2754.923,0.29684041
2756.019,0.29606702
2757.115,0.29475042
2758.213,0.29403182
2759.311,0.29382217
2760.41,0.29352436
2761.51,0.29316405
2762.611,0.29299999
2763.713,0.2928191
2764.816,0.29245161
2765.919,0.2922826
2767.024,0.29242446
2768.129,0.29246251
2769.235,0.29228714
2770.342,0.29225081
2771.45,0.29232558
2772.559,0.2921873
2773.669,0.29201572
2774.779,0.29216114
2775.891,0.2924003
2777.003,0.29235011
2778.116,0.29217698
2779.23,0.2921816
2780.345,0.29216733
2781.461,0.29191483
2782.578,0.29172507
2783.696,0.29184562
2784.814,0.29201213
2785.934,0.29196371
2787.054,0.29187731
2788.175,0.29195996
2789.297,0.2921151
2790.42,0.29227302
2791.544,0.2925245
2792.669,0.29280788
2793.795,0.292962
2794.922,0.29303815
2796.049,0.29322649
2797.178,0.29350908
2798.307,0.29371008
2799.437,0.29379168
2800.568,0.29384481
2801.7,0.29385618
2802.833,0.2937645
2803.967,0.29372843
2805.102,0.29400429
2806.238,0.29451687
2807.374,0.29496292
2808.512,0.29525756
2809.65,0.29555469
2810.789,0.295903
2811.93,0.29616481
2813.071,0.29629683
2814.213,0.29642327
2815.356,0.29657886
2816.5,0.29665053
2817.645,0.2965929
2818.791,0.29646179
2819.937,0.29626217
2821.085,0.29605224
2822.233,0.29604955
2823.383,0.29635427
2824.533,0.29675911
2825.685,0.29705293
2826.837,0.29725233
2827.99,0.29740792
2829.144,0.29743654
2830.299,0.29730462
2831.455,0.29710251
2832.612,0.29685177
2833.77,0.29645835
2834.929,0.29591476
2836.089,0.29531949
2837.25,0.29471962
2838.411,0.29407985
2839.574,0.29336295
2840.737,0.29254892
2841.902,0.29170769
2843.067,0.29102821
2844.234,0.29062287
2845.401,0.29036096
2846.569,0.29006049
2847.739,0.28973387
2848.909,0.28951837
2850.08,0.28951196
2851.252,0.28977006
2852.425,0.29025235
2853.599,0.29074657
2854.774,0.29109463
2855.95,0.29144649
2857.127,0.29200985
2858.305,0.29268492
2859.484,0.29326381
2860.664,0.29375486
2861.844,0.29421889
2863.026,0.29454109
2864.209,0.29463591
2865.392,0.29458805
2866.577,0.29440005
2867.763,0.29396412
2868.949,0.29339231
2870.137,0.29299436
2871.325,0.29284694
2872.515,0.29275744
2873.705,0.29263471
2874.897,0.29252695
2876.089,0.29235575
2877.283,0.29201048
2878.477,0.2916068
2879.673,0.29135354
2880.869,0.29124306
2882.066,0.29112858
2883.265,0.2909506
2884.464,0.29071328
2885.664,0.29040787
2886.866,0.29012412
2888.068,0.29003703
2889.271,0.29015192
2890.476,0.29022002
2891.681,0.29001485
2892.887,0.28957562
2894.095,0.28911634
2895.303,0.28878946
2896.512,0.2886004
2897.723,0.28847828
2898.934,0.28834659
2900.146,0.28814836
2901.36,0.28788766
2902.574,0.28766429
2903.789,0.28759841
2905.006,0.28768123
2906.223,0.28778074
2907.441,0.28780349
2908.661,0.28776336
2909.881,0.28767975
2911.103,0.2875334
2912.325,0.28736802
2913.549,0.28730714
2914.773,0.2874033
2915.999,0.2875556
2917.225,0.28759788
2918.453,0.28740806
2919.681,0.28694133
2920.911,0.28627597
2922.142,0.28561953
2923.373,0.28514765
2924.606,0.28484244
2925.84,0.28459715
2927.075,0.28441247
2928.31,0.28435901
2929.547,0.2843867
2930.785,0.28435152
2932.024,0.28421296
2933.264,0.28406145
2934.505,0.28395265
2935.747,0.28387338
2936.99,0.28385107
2938.234,0.28393103
2939.479,0.28404184
2940.726,0.28406061
2941.973,0.28401278
2943.221,0.28407109
2944.471,0.28436111
2945.721,0.28486817
2946.973,0.28544882
2948.225,0.28581918
2949.479,0.28570448
2950.733,0.28518513
2951.989,0.28473377
2953.246,0.28472166
2954.504,0.28502243
2955.763,0.28523106
2957.023,0.28510729
2958.284,0.28469047
2959.546,0.28419076
2960.809,0.2838892
2962.073,0.28395709
2963.339,0.28428717
2964.605,0.28462311
2965.873,0.28483078
2967.141,0.28491218
2968.411,0.28488068
2969.681,0.28481801
2970.953,0.28492849
2972.226,0.28533682
2973.5,0.28591807
2974.775,0.28644049
2976.051,0.28674788
2977.328,0.28675751
2978.607,0.28648278
2979.886,0.28612275
2981.167,0.28593569
2982.448,0.28597598
2983.731,0.28610672
2985.015,0.28624992
2986.3,0.28645231
2987.586,0.28673724
2988.873,0.28707212
2990.161,0.28743026
2991.45,0.28775554
2992.74,0.28795631
2994.032,0.28805616
2995.324,0.28821988
2996.618,0.28852373
2997.913,0.28885494
2999.209,0.28914567
3000.506,0.28950592
3001.804,0.2899847
3003.103,0.29040491
3004.404,0.29060006
3005.705,0.29063488
3007.008,0.29065461
3008.312,0.29070766
3009.616,0.29084922
3010.922,0.29117657
3012.23,0.2916302
3013.538,0.29199516
3014.847,0.29220605
3016.158,0.29239261
3017.469,0.29257832
3018.782,0.29265134
3020.096,0.29267257
3021.411,0.29284832
3022.727,0.29316652
3024.044,0.29343129
3025.363,0.29365056
3026.683,0.29402752
3028.003,0.29461885
3029.325,0.29535022
3030.648,0.29621424
3031.972,0.29708404
3033.298,0.2975584
3034.624,0.29739802
3035.952,0.29690767
3037.281,0.29654943
3038.611,0.2964475
3039.942,0.29655185
3041.274,0.29691742
3042.607,0.29748244
3043.942,0.29792224
3045.278,0.29802702
3046.615,0.29793265
3047.953,0.29781385
3049.292,0.2976761
3050.632,0.29755758
3051.974,0.29758354
3053.317,0.29772932
3054.661,0.29783373
3056.006,0.29789302
3057.352,0.29806579
3058.7,0.29838793
3060.048,0.29875353
3061.398,0.2991528
3062.749,0.29965852
3064.101,0.3001854
3065.455,0.30049639
3066.809,0.30048404
3068.165,0.30028059
3069.522,0.30006526
3070.88,0.29991124
3072.239,0.29986474
3073.6,0.30001598
3074.962,0.3003813
3076.325,0.30081777
3077.689,0.3011717
3079.054,0.30142128
3080.421,0.30159035
3081.788,0.30166407
3083.157,0.30171984
3084.527,0.30194896
3085.899,0.30237872
3087.271,0.30275328
3088.645,0.30286268
3090.02,0.30279843
3091.396,0.30272868
3092.774,0.30266438
3094.153,0.30262132
3095.532,0.30275733
3096.914,0.30315005
3098.296,0.30365335
3099.679,0.3040994
3101.064,0.30441348
3102.45,0.30448942
3103.837,0.30425601
3105.226,0.3039158
3106.616,0.30380437
3108.007,0.30397004
3109.399,0.30419066
3110.792,0.30438672
3112.187,0.30467753
3113.583,0.30505002
3114.98,0.30531974
3116.378,0.3054303
3117.778,0.30550117
3119.179,0.30559744
3120.581,0.3057048
3121.985,0.30588523
3123.389,0.30621034
3124.795,0.30658645
3126.202,0.30686681
3127.611,0.30708069
3129.02,0.30735454
3130.431,0.30767397
3131.844,0.30792461
3133.257,0.30810612
3134.672,0.30832251
3136.088,0.3085982
3137.505,0.30886694
3138.924,0.30911443
3140.344,0.30938575
3141.765,0.30967175
3143.187,0.30992568
3144.611,0.31017862
3146.036,0.31051255
3147.462,0.31090755
3148.89,0.31124882
3150.319,0.31150644
3151.749,0.31176168
3153.18,0.31203144
3154.613,0.31222689
3156.047,0.31234566
3157.482,0.31252406
3158.919,0.3128212
3160.357,0.31313476
3161.796,0.31341402
3163.236,0.31375515
3164.678,0.31419574
3166.121,0.31462094
3167.566,0.31496575
3169.011,0.3152914
3170.458,0.31559539
3171.907,0.31579291
3173.356,0.31595248
3174.807,0.31629392
3176.26,0.31690454
3177.713,0.31768012
3179.168,0.31851363
3180.624,0.31926584
3182.082,0.31963638
3183.541,0.31943301
3185.001,0.3189247
3186.463,0.31860206
3187.926,0.3186433
3189.39,0.31891449
3190.856,0.31934022
3192.323,0.31991287
3193.791,0.32045095
3195.26,0.32072255
3196.731,0.32075147
3198.204,0.32073936
3199.677,0.32078885
3201.152,0.32092283
3202.629,0.32120434
3204.106,0.32159878
3205.585,0.32188526
3207.066,0.321949
3208.548,0.32202632
3210.031,0.32244374
3211.515,0.3232449
3213.001,0.32424064
3214.488,0.32523723
3215.977,0.32602201
3217.467,0.32632227
3218.958,0.32605346
3220.451,0.32551148
3221.945,0.32512144
3223.441,0.32506569
3224.938,0.32526716
3226.436,0.32556425
3227.936,0.32576474
3229.437,0.32572747
3230.939,0.32556061
3232.443,0.32556247
3233.948,0.32582461
3235.455,0.32609998
3236.963,0.32618326
3238.472,0.32619104
3239.983,0.32633822
3241.495,0.32666467
3243.008,0.32710188
3244.523,0.32758762
3246.04,0.32801724
3247.558,0.32829357
3249.077,0.3285014
3250.598,0.32884662
3252.12,0.32939588
3253.643,0.33004787
3255.168,0.33069525
3256.694,0.33122003
3258.222,0.33139307
3259.751,0.33103725
3261.282,0.33029611
3262.814,0.32957572
3264.347,0.32921266
3265.882,0.32927988
3267.418,0.32964865
3268.956,0.33010084
3270.495,0.33041284
3272.036,0.33046887
3273.578,0.33034289
3275.122,0.33023097
3276.667,0.33027744
3278.213,0.33047725
3279.761,0.33074501
3281.31,0.33103651
3282.861,0.33136313
3284.413,0.33171885
3285.967,0.3320575
3287.522,0.33233831
3289.079,0.33254935
3290.637,0.33273271
3292.196,0.3330185
3293.757,0.33352468
3295.32,0.33413129
3296.884,0.33449071
3298.449,0.33438888
3300.016,0.3339984
3301.585,0.33366541
3303.155,0.33357009
3304.726,0.33367978
3306.299,0.33386597
3307.873,0.33396264
3309.449,0.33388973
3311.026,0.33378803
3312.605,0.33387144
3314.185,0.33412691
3315.767,0.33435299
3317.351,0.33448029
3318.936,0.33463452
3320.522,0.33491842
3322.11,0.33535772
3323.699,0.33600803
3325.29,0.33687514
3326.882,0.33776511
3328.476,0.33840065
3330.072,0.33863405
3331.669,0.33845552
3333.267,0.33794636
3334.867,0.33734246
3336.469,0.33694776
3338.072,0.33684884
3339.676,0.33687583
3341.282,0.33691371
3342.89,0.33702779
3344.499,0.33724859
3346.11,0.33748253
3347.722,0.33768785
3349.336,0.33789019
3350.952,0.3380021
3352.569,0.33786527
3354.187,0.33748553
3355.807,0.337031
3357.429,0.33664136
3359.052,0.3364043
3360.677,0.33641436
3362.303,0.33665068
3363.931,0.3368976
3365.56,0.33694513
3367.191,0.33678394
3368.824,0.336503
3370.458,0.33615054
3372.093,0.33577517
3373.731,0.33543716
3375.37,0.33512424
3377.01,0.33480714
3378.652,0.33458024
3380.296,0.33457999
3381.941,0.33479239
3383.588,0.33509479
3385.236,0.33542415
3386.886,0.33575736
3388.538,0.33601646
3390.191,0.33615248
3391.846,0.33624139
3393.502,0.33636949
3395.16,0.33650012
3396.82,0.33653539
3398.481,0.33643589
3400.144,0.33623766
3401.809,0.33600906
3403.475,0.33579628
3405.143,0.33553788
3406.812,0.33506753
3408.483,0.33427954
3410.156,0.33328299
3411.83,0.33232484
3413.506,0.33159542
3415.183,0.33114008
3416.862,0.33093254
3418.543,0.33097955
3420.226,0.33134512
3421.91,0.33203997
3423.596,0.33290756
3425.283,0.33369188
3426.972,0.33426186
3428.663,0.3347124
3430.355,0.33523517
3432.049,0.33594115
3433.745,0.33682848
3435.442,0.33783394
3437.141,0.338881
3438.842,0.33990764
3440.545,0.34084434
3442.249,0.3415461
3443.954,0.3418237
3445.662,0.34162707
3447.371,0.3411701
3449.082,0.34078059
3450.794,0.34064184
3452.509,0.3407287
3454.224,0.34094746
3455.942,0.34122151
3457.661,0.34149105
3459.382,0.34173932
3461.105,0.34200022
3462.829,0.3422533
3464.556,0.34237342
3466.283,0.34228654
3468.013,0.34209566
3469.744,0.34193732
3471.477,0.34181756
3473.212,0.3417089
3474.948,0.3416736
3476.686,0.34174507
3478.426,0.34183583
3480.168,0.34189399
3481.911,0.3419921
3483.656,0.34217393
3485.403,0.34241383
3487.152,0.34277065
3488.902,0.34329493
3490.654,0.34374142
3492.408,0.34370906
3494.164,0.3431399
3495.921,0.34237376
3497.68,0.34170311
3499.441,0.34119439
3501.204,0.34091323
3502.968,0.34095501
3504.734,0.34125508
3506.502,0.34166888
3508.272,0.34218603
3510.043,0.34282725
3511.817,0.3434758
3513.592,0.34404672
3515.368,0.34463547
3517.147,0.34529599
3518.927,0.34589032
3520.71,0.34632137
3522.494,0.34665821
3524.28,0.34692296
3526.067,0.34704393
3527.857,0.34713662
3529.648,0.34751112
3531.441,0.34825419
3533.236,0.34904958
3535.032,0.34951888
3536.831,0.3495469
3538.631,0.34924277
3540.433,0.3487975
3542.237,0.34841926
3544.043,0.34823274
3545.851,0.34818988
3547.66,0.34816618
3549.471,0.34813118
3551.284,0.3481407
3553.099,0.34820764
3554.916,0.34828107
3556.735,0.3483394
3558.555,0.34840035
3560.378,0.34845584
3562.202,0.34847274
3564.028,0.34847207
3565.856,0.34853408
3567.686,0.34868459
3569.518,0.34882087
3571.351,0.34881268
3573.187,0.3486564
3575.024,0.34846507
3576.863,0.34834247
3578.704,0.34834441
3580.547,0.34851216
3582.392,0.34882014
3584.239,0.34909893
3586.088,0.34915086
3587.938,0.34895559
3589.791,0.34867824
3591.645,0.34848752
3593.501,0.34845784
3595.359,0.34856865
3597.22,0.3486674
3599.082,0.34851852
3600.946,0.34806219
3602.811,0.34753379
3604.679,0.34718549
3606.549,0.34701501
3608.421,0.3469361
3610.294,0.34701786
3612.17,0.34732655
3614.047,0.34770482
3615.926,0.34793448
3617.808,0.34797563
3619.691,0.3478815
3621.576,0.34767348
3623.463,0.34744422
3625.353,0.34735944
3627.244,0.34742286
3629.137,0.34745553
3631.032,0.34738273
3632.929,0.3473053
3634.828,0.34725988
3636.729,0.34717354
3638.632,0.3470719
3640.537,0.34706894
3642.444,0.34716431
3644.353,0.34728018
3646.263,0.34744584
3648.176,0.34770967
3650.091,0.34794832
3652.008,0.34797212
3653.927,0.3477584
3655.848,0.34743403
3657.771,0.3471152
3659.696,0.34687874
3661.623,0.34679179
3663.552,0.34685631
3665.483,0.34697739
3667.416,0.347049
3669.351,0.34704391
3671.288,0.34700628
3673.227,0.34700188
3675.168,0.34708162
3677.111,0.34726547
3679.057,0.34752537
3681.004,0.34776439
3682.953,0.34784357
3684.905,0.34769808
3686.858,0.34741939
3688.814,0.34715912
3690.771,0.34697829
3692.731,0.34687074
3694.693,0.3468591
3696.656,0.34695855
3698.622,0.34709709
3700.59,0.34718689
3702.56,0.34721076
3704.532,0.34717385
3706.507,0.34706111
3708.483,0.34691685
3710.461,0.34685068
3712.442,0.34689357
3714.425,0.34695056
3716.409,0.34695449
3718.396,0.34694182
3720.385,0.34693437
3722.376,0.34686677
3724.37,0.34671883
3726.365,0.34660743
3728.362,0.34664567
3730.362,0.34678002
3732.364,0.3468805
3734.368,0.34691684
3736.374,0.34694304
3738.382,0.34697801
3740.392,0.34704217
3742.405,0.34721664
3744.419,0.34749704
3746.436,0.3476921
3748.455,0.34765757
3750.476,0.34749995
3752.499,0.34736126
3754.525,0.34719106
3756.553,0.34696166
3758.582,0.34684413
3760.614,0.34692483
3762.649,0.34701734
3764.685,0.34698978
3766.724,0.34696282
3768.764,0.34699865
3770.807,0.34696049
3772.853,0.34684011
3774.9,0.3468115
3776.95,0.34685998
3779.001,0.34679032
3781.056,0.34663499
3783.112,0.34660193
3785.17,0.34666154
3787.231,0.34663386
3789.294,0.34657246
3791.359,0.34662158
3793.427,0.34667136
3795.496,0.34656297
3797.568,0.34642211
3799.643,0.34642095
3801.719,0.34647691
3803.798,0.34648195
3805.879,0.34653324
3807.962,0.34668637
3810.048,0.34680066
3812.135,0.34681244
3814.225,0.34686164
3816.318,0.3470172
3818.412,0.34716242
3820.509,0.34721696
3822.609,0.34722319
3824.71,0.34719479
3826.814,0.34710992
3828.92,0.34703994
3831.029,0.34708918
3833.139,0.34723888
3835.252,0.3473918
3837.368,0.34751724
3839.486,0.3476503
3841.606,0.34779573
3843.728,0.34792203
3845.853,0.34802462
3847.98,0.34814518
3850.109,0.34832303
3852.241,0.34854408
3854.375,0.34874952
3856.512,0.34889803
3858.65,0.34899267
3860.792,0.34905472
3862.935,0.3491169
3865.081,0.34923514
3867.229,0.34943466
3869.38,0.34964882
3871.533,0.34978472
3873.689,0.34984603
3875.846,0.3499065
3878.007,0.34999474
3880.169,0.3500949
3882.334,0.35022291
3884.502,0.35039515
3886.672,0.35056631
3888.844,0.35069245
3891.019,0.35081754
3893.196,0.35099331
3895.375,0.35117524
3897.557,0.3512857
3899.742,0.35133726
3901.929,0.3513749
3904.118,0.35137874
3906.31,0.35133336
3908.504,0.35132033
3910.7,0.35141526
3912.9,0.3515647
3915.101,0.35167859
3917.305,0.35177439
3919.512,0.35191126
3921.721,0.35207457
3923.932,0.35223255
3926.146,0.35241336
3928.363,0.35262949
3930.581,0.35282993
3932.803,0.35299654
3935.027,0.35318004
3937.253,0.35339353
3939.482,0.3536007
3941.714,0.35381733
3943.948,0.35409598
3946.184,0.35441056
3948.423,0.35468634
3950.665,0.35492388
3952.909,0.35517195
3955.156,0.3554215
3957.405,0.35564999
3959.657,0.35590834
3961.911,0.3562668
3964.168,0.35672023
3966.427,0.35721478
3968.689,0.35771085
3970.954,0.35818847
3973.221,0.35863982
3975.491,0.35907413
3977.763,0.35949348
3980.038,0.35988542
3982.315,0.36025
3984.595,0.36060311
3986.878,0.36094432
3989.163,0.36127309
3991.451,0.36161245
3993.742,0.36198028
3996.035,0.36236772
3998.33,0.36277636
4000.629,0.36321168
4002.93,0.36362267
4005.233,0.36394456
4007.54,0.36420263
4009.849,0.36447299
4012.16,0.36476495
4014.475,0.36504524
4016.791,0.36532774
4019.111,0.36563887
4021.433,0.3659612
4023.758,0.36628466
4026.086,0.36663659
4028.416,0.36701481
4030.749,0.36738896
4033.085,0.3677759
4035.423,0.36821359
4037.764,0.36865623
4040.108,0.36902409
4042.454,0.36933392
4044.804,0.36967009
4047.155,0.3700588
4049.51,0.3704732
4051.867,0.37091082
4054.228,0.37138718
4056.59,0.37187618
4058.956,0.37233096
4061.324,0.37273682
4063.695,0.37310422
4066.069,0.37343828
4068.446,0.37375257
4070.825,0.37408958
4073.207,0.3744938
4075.592,0.37496907
4077.98,0.37549561
4080.371,0.37607982
4082.764,0.37673898
4085.16,0.3774293
4087.559,0.37805812
4089.961,0.37858539
4092.365,0.37904164
4094.773,0.37945812
4097.183,0.37986526
4099.596,0.38033737
4102.012,0.38091197
4104.43,0.38151913
4106.852,0.38209491
4109.276,0.38268068
4111.703,0.38331163
4114.133,0.38395306
4116.566,0.38462285
4119.002,0.38539725
4121.441,0.38622742
4123.882,0.38696999
4126.327,0.38762511
4128.774,0.38830785
4131.224,0.3890141
4133.677,0.3896799
4136.133,0.39038418
4138.592,0.39122164
4141.054,0.39210683
4143.519,0.39293423
4145.987,0.39374037
4148.457,0.39452842
4150.931,0.39519741
4153.407,0.39577774
4155.887,0.3964336
4158.369,0.39718016
4160.854,0.39791088
4163.343,0.39866619
4165.834,0.39953217
4168.328,0.40039019
4170.826,0.40110098
4173.326,0.40176471
4175.829,0.40251273
4178.335,0.40329863
4180.844,0.40411545
4183.356,0.40509478
4185.872,0.40624142
4188.39,0.40743264
4190.911,0.40875361
4193.435,0.41047282
4195.963,0.41272608
4198.493,0.41557787
4201.026,0.41925261
4203.563,0.42393162
4206.102,0.42948856
4208.645,0.43574289
4211.19,0.44267495
4213.739,0.45007097
4216.291,0.45735512
4218.846,0.46413853
4221.404,0.47047886
4223.965,0.47638398
4226.529,0.48169838
4229.096,0.48654366
4231.666,0.49102767
4234.24,0.49465003
4236.816,0.49684277
4239.396,0.49777277
4241.979,0.49768648
4244.565,0.49600223
4247.154,0.4918023
4249.746,0.485009
4252.341,0.47692586
4254.94,0.46998126
4257.542,0.46668109
4260.146,0.46831145
4262.754,0.47421111
4265.366,0.48198955
4267.98,0.48880301
4270.598,0.49301053
4273.219,0.494728
4275.843,0.49507836
4278.47,0.49521584
4281.1,0.49566218
4283.734,0.49632338
4286.371,0.49705195
4289.011,0.49783246
4291.655,0.49839629
4294.301,0.49834204
4296.951,0.49779579
4299.604,0.49736249
4302.261,0.49726812
4304.92,0.49710638
4307.583,0.49644281
4310.25,0.4952081
4312.919,0.49351458
4315.592,0.49159783
4318.268,0.48988706
4320.948,0.48869919
4323.631,0.48788701
4326.317,0.48709307
4329.006,0.48621105
4331.699,0.48532679
4334.395,0.48443281
4337.095,0.48354947
4339.797,0.48291385
4342.504,0.48270727
4345.213,0.48277954
4347.926,0.48294349
4350.642,0.483264
4353.362,0.48378867
4356.085,0.48432572
4358.811,0.48478388
4361.541,0.48537716
4364.275,0.48623084
4367.011,0.48717265
4369.751,0.48810687
4372.495,0.48914098
4375.242,0.49024226
4377.992,0.4912703
4380.746,0.49237959
4383.504,0.49384302
4386.264,0.49553672
4389.029,0.49713794
4391.796,0.49866792
4394.567,0.50027013
4397.342,0.50175578
4400.12,0.50297637
4402.902,0.50424175
4405.687,0.50580948
4408.476,0.5074209
4411.268,0.50884589
4414.064,0.51027951
4416.863,0.51182705
4419.666,0.51325951
4422.472,0.51455856
4425.282,0.51598426
4428.096,0.51747426
4430.913,0.5187315
4433.734,0.51988094
4436.558,0.52124644
4439.386,0.52264794
4442.217,0.52369243
4445.052,0.52450816
4447.891,0.52545652
4450.733,0.52650914
4453.579,0.52751541
4456.428,0.52861786
4459.281,0.52987034
4462.138,0.53097228
4464.998,0.53180572
4467.863,0.53269397
4470.73,0.53382277
4473.602,0.53497373
4476.477,0.53598543
4479.355,0.5369534
4482.238,0.53787811
4485.124,0.53861569
4488.014,0.53918971
4490.908,0.53979174
4493.805,0.54051181
4496.706,0.54131627
4499.611,0.54219692
4502.519,0.54314772
4505.431,0.54409994
4508.347,0.54496082
4511.267,0.54569822
4514.191,0.54637016
4517.118,0.5470766
4520.049,0.54780948
4522.984,0.54845911
4525.923,0.54902844
4528.865,0.54963032
4531.812,0.55019143
4534.762,0.55051071
4537.716,0.55070578
4540.674,0.55112675
4543.635,0.55179048
4546.601,0.55240589
4549.57,0.55296737
4552.543,0.55368931
4555.521,0.55445891
4558.502,0.55500718
4561.487,0.55547741
4564.475,0.55609641
4567.468,0.55657917
4570.465,0.55661309
4573.465,0.55661176
4576.47,0.5570766
4579.478,0.55776154
4582.491,0.55830923
4585.507,0.5589317
4588.527,0.55973355
4591.551,0.56025984
4594.58,0.56038442
4597.612,0.5607036
4600.648,0.56146689
4603.688,0.56211953
4606.732,0.56235223
4609.781,0.56257054
4612.833,0.56294487
4615.889,0.56314917
4618.949,0.56326277
4622.014,0.56379195
4625.082,0.56457335
4628.155,0.56494037
4631.231,0.56500137
4634.312,0.56549535
4637.397,0.56635332
4640.485,0.56689705
4643.578,0.56720524
4646.675,0.56781628
4649.777,0.56856198
4652.882,0.56894245
4655.991,0.56928869
4659.105,0.57023394
4662.223,0.57147875
4665.345,0.572442
4668.471,0.57346631
4671.601,0.57504093
4674.735,0.57673168
4677.874,0.57802111
4681.017,0.5791838
4684.164,0.58030647
4687.315,0.58078647
4690.471,0.58070361
4693.63,0.58122495
4696.794,0.5828345
4699.962,0.58468324
4703.135,0.58618843
4706.312,0.58771738
4709.493,0.58932162
4712.678,0.5904575
4715.868,0.59120563
4719.062,0.59223483
4722.26,0.59354767
4725.463,0.59464602
4728.669,0.5956535
4731.881,0.59694125
4735.096,0.59817094
4738.316,0.5988619
4741.541,0.59933384
4744.769,0.60011094
4748.002,0.60110227
4751.24,0.60206286
4754.482,0.60312357
4757.728,0.60432228
4760.979,0.60537142
4764.234,0.60622149
4767.494,0.60718319
4770.758,0.60831321
4774.026,0.60933842
4777.299,0.61018001
4780.577,0.61102112
4783.859,0.61191881
4787.145,0.61277293
4790.436,0.61353418
4793.732,0.61422498
4797.032,0.61488883
4800.336,0.61561905
4803.645,0.61648666
4806.959,0.61746272
4810.277,0.61855373
4813.6,0.61983541
4816.927,0.62117216
4820.259,0.62220621
4823.596,0.62280507
4826.937,0.62322316
4830.283,0.62373377
4833.633,0.62445426
4836.988,0.62546941
4840.348,0.62672367
4843.712,0.62794378
4847.081,0.6290527
4850.455,0.63036794
4853.833,0.63201894
4857.216,0.63356702
4860.604,0.63461542
4863.996,0.63538793
4867.393,0.63624819
4870.795,0.63708499
4874.202,0.63766282
4877.613,0.63819655
4881.03,0.63903774
4884.451,0.64018614
4887.876,0.64154776
4891.307,0.64320127
4894.742,0.64501116
4898.182,0.64649418
4901.627,0.64751084
4905.077,0.64856818
4908.532,0.64987768
4911.991,0.65089535
4915.456,0.65136181
4918.925,0.65188515
4922.399,0.65293186
4925.878,0.65423537
4929.362,0.65557734
4932.851,0.65705324
4936.345,0.65835482
4939.844,0.65901013
4943.347,0.65947869
4946.856,0.66069793
4950.37,0.66256515
4953.888,0.66410929
4957.412,0.66498198
4960.941,0.66557307
4964.474,0.66603114
4968.013,0.66636906
4971.556,0.66703274
4975.105,0.66826452
4978.659,0.66938303
4982.218,0.66976947
4985.782,0.66994684
4989.351,0.67062466
4992.925,0.67157525
4996.504,0.67238189
5000.088,0.67328229
5003.678,0.67447949
5007.272,0.67570299
5010.872,0.67697178
5014.477,0.67866506
5018.087,0.68045229
5021.703,0.68138118
5025.323,0.68129639
5028.949,0.68102458
5032.58,0.68106291
5036.216,0.6812425
5039.857,0.6815459
5043.504,0.68217867
5047.156,0.68295812
5050.813,0.68352775
5054.475,0.6839864
5058.143,0.68460416
5061.816,0.68525286
5065.495,0.6857563
5069.179,0.68642432
5072.868,0.68764858
5076.562,0.68926698
5080.262,0.69074257
5083.967,0.69171446
5087.678,0.69213871
5091.394,0.69219605
5095.115,0.69226774
5098.842,0.69273561
5102.574,0.69364723
5106.312,0.69470496
5110.055,0.69560938
5113.804,0.69630614
5117.558,0.69692428
5121.318,0.69759448
5125.083,0.69836432
5128.854,0.69932792
5132.63,0.70078466
5136.412,0.70301246
5140.199,0.70576899
5143.992,0.70823313
5147.791,0.70962668
5151.595,0.70980216
5155.405,0.70924943
5159.22,0.70878288
5163.041,0.70912518
5166.868,0.71038296
5170.7,0.71195918
5174.538,0.71328173
5178.382,0.71444117
5182.231,0.71583651
5186.086,0.71762817
5189.947,0.71987471
5193.814,0.72265242
5197.686,0.72566404
5201.564,0.72833981
5205.448,0.73055377
5209.338,0.73246321
5213.233,0.73360336
5217.134,0.73331952
5221.041,0.73223126
5224.954,0.73192341
5228.873,0.73306851
5232.798,0.7349389
5236.728,0.73666935
5240.665,0.73797323
5244.607,0.73875695
5248.555,0.7391041
5252.51,0.73954779
5256.47,0.74050161
5260.436,0.74174548
5264.408,0.74305732
5268.386,0.74468899
5272.37,0.74665724
5276.36,0.74848802
5280.356,0.75015569
5284.358,0.7522087
5288.367,0.75448891
5292.381,0.75592136
5296.401,0.75607646
5300.428,0.7557869
5304.46,0.75583892
5308.499,0.75624243
5312.544,0.75692215
5316.595,0.75797934
5320.652,0.7591409
5324.715,0.75994783
5328.785,0.76063176
5332.86,0.76206227
5336.942,0.76485805
5341.031,0.76893306
5345.125,0.77343153
5349.226,0.77665809
5353.333,0.77698215
5357.446,0.77464435
5361.566,0.77181195
5365.692,0.77034266
5369.824,0.77033248
5373.962,0.77091057
5378.107,0.77153767
5382.259,0.77211977
5386.417,0.77259528
5390.581,0.77303386
5394.751,0.77374233
5398.928,0.77492157
5403.112,0.77668678
5407.302,0.7795045
5411.498,0.78380451
5415.701,0.78872982
5419.911,0.7920397
5424.127,0.79214348
5428.349,0.78983892
5432.579,0.78723789
5436.814,0.78583108
5441.057,0.78612298
5445.305,0.78803597
5449.561,0.79117086
5453.823,0.79530802
5458.092,0.80060074
5462.368,0.80655134
5466.65,0.81138758
5470.939,0.81393518
5475.234,0.81531456
5479.537,0.81692432
5483.846,0.81821267
5488.162,0.81846976
5492.484,0.8189806
5496.814,0.82124508
5501.15,0.82532932
5505.493,0.83163281
5509.843,0.84144196
5514.2,0.85417585
5518.564,0.86713618
5522.934,0.87905701
5527.312,0.89081659
5531.696,0.90286872
5536.087,0.91596242
5540.486,0.93083681
5544.891,0.93872002
5549.303,0.91671962
5553.723,0.84808309
5558.149,0.76903409
5562.582,0.68901284
5567.023,0.62197185
5571.47,0.57748489
5575.925,0.55863379
5580.387,0.57408864
5584.856,0.60376279
5589.332,0.62888572
5593.815,0.6456485
5598.305,0.65961386
5602.803,0.6717985
5607.307,0.67972363
5611.819,0.6866449
5616.339,0.69582482
5620.865,0.70432455
5625.399,0.70920348
5629.94,0.71381952
5634.489,0.72053278
5639.044,0.72594243
5643.607,0.72763702
5648.178,0.72939986
5652.756,0.73298283
5657.341,0.73532508
5661.934,0.73591228
5666.534,0.73837568
5671.142,0.74292284
5675.757,0.7457926
5680.379,0.74668423
5685.01,0.74893918
5689.647,0.75210541
5694.293,0.75311906
5698.945,0.75357201
5703.606,0.7572916
5708.274,0.76280558
5712.949,0.76546424
5717.633,0.76585824
5722.324,0.7674934
5727.022,0.76968602
5731.729,0.77024325
5736.443,0.77125029
5741.165,0.77480716
5745.894,0.77833401
5750.631,0.7798368
5755.377,0.78285088
5760.13,0.78935708
5764.89,0.7944753
5769.659,0.79439927
5774.436,0.79303071
5779.22,0.79306194
5784.012,0.79190496
5788.813,0.78936989
5793.621,0.7896549
5798.437,0.79358601
5803.262,0.79757347
5808.094,0.80143766
5812.934,0.80829791
5817.782,0.81602073
5822.639,0.81825283
5827.503,0.81576267
5832.376,0.81411555
5837.257,0.81351865
5842.146,0.81191626
5847.043,0.81220959
5851.948,0.81696098
5856.862,0.82254549
5861.783,0.82523136
5866.714,0.82821525
5871.652,0.83392708
5876.598,0.83831821
5881.553,0.83836666
5886.517,0.83772959
5891.488,0.83750388
5896.468,0.83422413
5901.457,0.8291452
5906.454,0.82770486
5911.459,0.82991298
5916.473,0.83197786
5921.495,0.83448643
5926.526,0.84032422
5931.565,0.84623986
5936.613,0.84616367
5941.67,0.84214692
5946.735,0.83969292
5951.809,0.83878065
5956.891,0.83802657
5961.982,0.83931543
5967.082,0.842819
5972.19,0.84477202
5977.307,0.8441257
5982.433,0.84421044
5987.568,0.84511203
5992.711,0.8436049
5997.864,0.84088757
6003.025,0.84092778
6008.195,0.84266317
6013.374,0.84199384
6018.562,0.83981187
6023.759,0.840166
6028.964,0.84356786
6034.179,0.84818
6039.403,0.85362199
6044.636,0.85829693
6049.878,0.85857539
6055.129,0.85566228
6060.389,0.85498946
6065.658,0.8569986
6070.936,0.85720008
6076.224,0.85409476
6081.52,0.85116584
6086.826,0.85048019
6092.141,0.85148756
6097.466,0.85449345
6102.8,0.85940878
6108.143,0.86266594
6113.495,0.86118894
6118.857,0.85761106
6124.228,0.85574111
6129.609,0.85565878
6134.999,0.85647488
6140.398,0.85866721
6145.807,0.86164098
6151.226,0.86309708
6156.654,0.86276813
6162.091,0.86294364
6167.539,0.8644938
6172.996,0.86612072
6178.462,0.86715132
6183.938,0.86780961
6189.424,0.86764573
6194.92,0.86661657
6200.425,0.86626988
6205.94,0.86744364
6211.465,0.86882997
6217.0,0.86926968
6222.544,0.86968126
6228.099,0.87091401
6233.663,0.87204086
6239.237,0.87225237
6244.822,0.87238028
6250.416,0.87312792
6256.02,0.87400574
6261.635,0.8748037
6267.259,0.87611649
6272.893,0.87763221
6278.538,0.87819423
6284.193,0.87790445
6289.858,0.87809273
6295.533,0.87899389
6301.218,0.87976876
6306.914,0.88046202
6312.619,0.88179456
6318.336,0.88356
6324.062,0.88533916
6329.799,0.88756844
6335.546,0.88998489
6341.304,0.89082463
6347.072,0.89004743
6352.851,0.89028152
6358.64,0.89253205
6364.44,0.89452864
6370.25,0.89449138
6376.071,0.89346725
6381.903,0.89281657
6387.745,0.8930834
6393.598,0.8955541
6399.461,0.90099412
6405.335,0.906471
6411.221,0.90759881
6417.116,0.90500923
6423.023,0.90226485
6428.941,0.90006639
6434.869,0.89821402
6440.809,0.89801645
6446.759,0.89949623
6452.72,0.9006206
6458.693,0.90131748
6464.676,0.90390991
6470.671,0.90831291
6476.676,0.91139763
6482.693,0.91194634
6488.721,0.91144661
6494.76,0.9100568
6500.81,0.90769527
6506.872,0.9066858
6512.945,0.90802811
6519.029,0.90908348
6525.124,0.908167
6531.231,0.90763628
6537.35,0.90908497
6543.48,0.91075213
6549.621,0.9117663
6555.774,0.91376397
6561.938,0.91655255
6568.114,0.91769755
6574.302,0.91744354
6580.501,0.91788747
6586.712,0.91826123
6592.934,0.91690736
6599.169,0.91557669
6605.415,0.91667128
6611.673,0.91940502
6617.943,0.92195517
6624.224,0.92418393
6630.518,0.92524369
6636.823,0.92308434
6643.141,0.91917538
6649.47,0.9175787
6655.812,0.91892045
6662.166,0.92054114
6668.532,0.92100168
6674.91,0.92109741
6681.3,0.92108965
6687.702,0.92080909
6694.117,0.9215013
6700.544,0.92383187
6706.983,0.92577346
6713.435,0.92545722
6719.899,0.92416345
6726.375,0.92359867
6732.864,0.92335985
6739.365,0.92305721
6745.879,0.92363989
6752.406,0.92530441
6758.945,0.92692205
6765.497,0.92827469
6772.062,0.93000133
6778.639,0.93121641
6785.229,0.9303481
6791.832,0.92835408
6798.448,0.92746038
6805.076,0.92786694
6811.718,0.92850781
6818.372,0.92926406
6825.039,0.93033403
6831.72,0.93124368
6838.413,0.93209887
6845.12,0.93381152
6851.84,0.93583418
6858.573,0.93599613
6865.319,0.93412658
6872.078,0.9325261
6878.851,0.93215046
6885.637,0.93214036
6892.437,0.93225586
6899.25,0.93284871
6906.076,0.93325127
6912.916,0.93273902
6919.769,0.93225854
6926.636,0.93291223
6933.517,0.93420257
6940.411,0.9353144
6947.319,0.93644103
6954.241,0.93748307
6961.176,0.93759665
6968.125,0.93711046
6975.089,0.93734115
6982.066,0.93822595
6989.057,0.93858416
6996.062,0.93842391
7003.081,0.93873387
7010.114,0.93953272
7017.161,0.94029085
7024.223,0.941344
7031.298,0.94292337
7038.388,0.94400308
7045.492,0.94388577
7052.611,0.94345975
7059.743,0.94346844
7066.891,0.94352509
7074.052,0.94347195
7081.229,0.94381637
7088.419,0.9445286
7095.625,0.94503199
7102.845,0.94538588
7110.079,0.94605825
7117.329,0.94689093
7124.593,0.94752473
7131.872,0.9482072
7139.166,0.94916926
7146.475,0.94994641
7153.799,0.9501081
7161.137,0.94990944
7168.491,0.94977343
7175.86,0.94983987
7183.244,0.95019767
7190.643,0.95087037
7198.058,0.95156817
7205.487,0.95193487
7212.933,0.95199241
7220.393,0.95205202
7227.869,0.95234932
7235.36,0.95292019
7242.867,0.95365008
7250.39,0.95439199
7257.928,0.9550504
7265.481,0.9555137
7273.051,0.95567751
7280.636,0.95568732
7288.237,0.95585512
7295.854,0.95624629
7303.487,0.95672282
7311.135,0.95735221
7318.8,0.95824182
7326.481,0.95908023
7334.178,0.95946371
7341.891,0.95950678
7349.62,0.95954207
7357.366,0.95963763
7365.128,0.95983743
7372.906,0.96032421
7380.701,0.96098411
7388.512,0.96148648
7396.34,0.96189116
7404.184,0.96249574
7412.045,0.96315688
7419.922,0.96357369
7427.817,0.96393276
7435.728,0.96454637
7443.656,0.96526983
7451.601,0.96587208
7459.562,0.96639525
7467.541,0.96676851
7475.537,0.96677981
7483.55,0.96662598
7491.58,0.96673183
7499.628,0.96706171
7507.692,0.96732841
7515.774,0.96758548
7523.874,0.96798722
7531.99,0.96837449
7540.125,0.96864629
7548.277,0.96898733
7556.446,0.96941583
7564.633,0.96971473
7572.838,0.96991628
7581.061,0.97020468
7589.302,0.97046842
7597.56,0.97054745
7605.837,0.97062057
7614.131,0.97083148
7622.444,0.97099165
7630.774,0.97101537
7639.123,0.97110258
7647.491,0.97129675
7655.876,0.97145792
7664.28,0.97166203
7672.702,0.97204901
7681.143,0.97243502
7689.602,0.97262355
7698.08,0.97276431
7706.577,0.97299531
7715.093,0.97318792
7723.627,0.973329
7732.18,0.97362793
7740.752,0.97407217
7749.343,0.97444326
7757.953,0.97475174
7766.583,0.9751473
7775.231,0.97552803
7783.899,0.97575364
7792.586,0.97598339
7801.292,0.97638207
7810.018,0.97682717
7818.764,0.97722499
7827.529,0.97770871
7836.313,0.97830918
7845.117,0.97884301
7853.942,0.97927048
7862.786,0.97975117
7871.649,0.98030922
7880.533,0.98080632
7889.437,0.98123166
7898.361,0.9816667
7907.305,0.98206206
7916.27,0.9823422
7925.254,0.98262405
7934.26,0.98303836
7943.285,0.98350671
7952.331,0.98389961
7961.398,0.98427868
7970.485,0.98475068
7979.594,0.98525497
7988.723,0.98567799
7997.872,0.98605082
8007.043,0.98643724
8016.235,0.98679018
8025.448,0.98707153
8034.682,0.98738611
8043.937,0.98780992
8053.214,0.9882608
8062.512,0.98865103
8071.832,0.98899318
8081.173,0.98926983
8090.535,0.98941581
8099.92,0.98951431
8109.326,0.98974492
8118.754,0.99010137
8128.204,0.99042441
8137.676,0.99068374
8147.169,0.99096561
8156.686,0.9912622
8166.224,0.9915311
8175.785,0.99185302
8185.368,0.99228184
8194.973,0.99271206
8204.601,0.99306116
8214.252,0.99338989
8223.925,0.99371817
8233.621,0.99397428
8243.34,0.99418434
8253.082,0.99447448
8262.847,0.99486256
8272.635,0.99525872
8282.446,0.99563492
8292.281,0.99601269
8302.139,0.996377
8312.02,0.9967235
8321.925,0.99708981
8331.853,0.99745742
8341.805,0.99776339
8351.781,0.99802067
8361.781,0.99830575
8371.804,0.99864782
8381.852,0.99901164
8391.924,0.99935423
8402.02,0.99964501
8412.14,0.99987634
8422.285,0.010000818
8432.454,0.0100029189
8442.648,0.0100050772
8452.866,0.0100071607
8463.109,0.010009077
8473.377,0.0100108118
8483.67,0.0100128054
8493.988,0.0100154217
8504.331,0.0100181151
8514.699,0.0100200935
8525.092,0.0100216791
8535.511,0.0100234848
8545.955,0.0100251965
8556.425,0.0100266159
8566.921,0.0100285189
8577.442,0.0100308454
8587.989,0.0100324151
8598.562,0.010033222
8609.161,0.010034464
8619.786,0.0100359674
8630.437,0.0100368843
8641.115,0.0100380577
8651.819,0.0100404917
8662.55,0.0100429427
8673.307,0.0100444667
8684.091,0.0100463794
8694.902,0.0100491406
8705.739,0.0100511759
8716.604,0.010052479
8727.496,0.010054963
8738.415,0.010058421
8749.361,0.0100610192
8760.335,0.010063214
8771.336,0.0100663503
8782.365,0.0100693055
8793.422,0.010071098
8804.507,0.0100735392
8815.619,0.0100775254
8826.76,0.0100812726
8837.928,0.0100844504
8849.125,0.0100887425
8860.351,0.0100933752
8871.604,0.0100960875
8882.887,0.0100977878
8894.198,0.010100732
8905.538,0.0101041545
8916.907,0.0101068175
8928.305,0.0101099707
8939.732,0.0101137471
8951.188,0.0101157091
8962.673,0.0101157072
8974.189,0.0101162046
8985.733,0.0101173043
8997.308,0.0101172283
9008.912,0.0101168517
9020.546,0.0101174941
9032.21,0.0101173314
9043.905,0.010115095
9055.629,0.0101132447
9067.384,0.0101131165
9079.17,0.0101128022
9090.986,0.0101118765
9102.833,0.010112161
9114.711,0.0101125486
9126.62,0.0101102369
9138.56,0.0101060861
9150.531,0.0101026565
9162.534,0.0100992668
9174.568,0.0100948923
9186.634,0.0100917333
9198.731,0.0100911464
9210.86,0.0100906904
9223.022,0.010089087
9235.215,0.0100881816
9247.441,0.0100881269
9259.699,0.010086541
9271.99,0.0100836221
9284.313,0.0100820932
9296.669,0.0100822738
9309.058,0.010082298
9321.48,0.0100821893
9333.935,0.0100830235
9346.423,0.01008391
9358.945,0.0100837261
9371.5,0.0100837572
9384.089,0.0100853295
9396.712,0.0100873532
9409.369,0.0100885197
9422.06,0.0100896697
9434.785,0.010091661
9447.545,0.0100936795
9460.339,0.010095182
9473.167,0.0100974328
9486.031,0.0101010404
9498.929,0.0101044365
9511.863,0.0101063052
9524.832,0.0101076039
9537.836,0.0101093804
9550.876,0.0101110665
9563.951,0.0101123649
9577.062,0.0101145127
9590.209,0.0101177393
9603.393,0.0101203557
9616.612,0.0101216622
9629.868,0.0101230066
9643.16,0.01012499
9656.49,0.0101267912
9669.856,0.0101285955
9683.259,0.0101314599
9696.699,0.0101345953
9710.176,0.0101362743
9723.691,0.0101366745
9737.244,0.010137061
9750.834,0.010137111
9764.463,0.0101360433
9778.129,0.0101346167
9791.834,0.0101336716
9805.577,0.010132577
9819.359,0.0101311913
9833.18,0.0101305461
9847.039,0.0101309259
9860.938,0.0101311641
9874.875,0.0101309524
9888.853,0.0101311422
9902.869,0.0101319938
9916.926,0.0101327894
9931.022,0.0101332627
9945.159,0.0101336083
9959.336,0.0101337177
9973.553,0.0101336295
9987.811,0.010134095
10002.109,0.0101354825
10016.449,0.0101371566
10030.83,0.0101383709
10045.252,0.0101392055
10059.715,0.0101399707
10074.221,0.0101406769
10088.768,0.0101414092
10103.357,0.0101425514
10117.988,0.0101440368
10132.662,0.0101453308
10147.378,0.0101463129
10162.137,0.0101475955
10176.939,0.0101495932
10191.784,0.0101520947
10206.672,0.0101549579
10221.604,0.0101583432
10236.58,0.0101618608
10251.6,0.0101649329
10266.663,0.0101678221
10281.771,0.0101710278
10296.924,0.0101738381
10312.121,0.010175445
10327.363,0.0101764834
10342.65,0.0101779083
10357.982,0.0101792449
10373.36,0.0101799401
10388.784,0.0101806331
10404.253,0.0101816889
10419.769,0.0101823111
10435.331,0.0101825162
10450.939,0.0101831459
10466.594,0.0101837129
10482.296,0.0101831314
10498.045,0.010182288
10513.842,0.010182581
10529.686,0.0101833347
10545.577,0.0101837345
10561.517,0.0101849574
10577.505,0.0101874281
10593.542,0.0101894003
10609.627,0.0101902341
10625.761,0.0101912082
10641.944,0.0101919461
10658.176,0.0101908889
10674.458,0.0101889319
10690.79,0.010187988
10707.172,0.0101873997
10723.604,0.0101863793
10740.086,0.010186607
10756.619,0.0101885666
10773.203,0.0101897611
10789.839,0.010189675
10806.525,0.010190482
10823.264,0.0101919744
10840.054,0.0101922
10856.896,0.0101926851
10873.791,0.0101956807
10890.738,0.0101990104
10907.738,0.0102001283
10924.791,0.0102011475
10941.898,0.0102036367
10959.058,0.0102050799
10976.272,0.0102048498
10993.541,0.0102060834
11010.863,0.0102086628
11028.24,0.0102094321
11045.672,0.0102092108
11063.16,0.0102109432
11080.702,0.0102125928
11098.301,0.010211381
11115.955,0.0102102012
11133.665,0.010211691
11151.432,0.0102124387
11169.256,0.01021012
11187.137,0.0102079667
11205.075,0.0102073782
11223.07,0.010205158
11241.124,0.0102012937
11259.235,0.0101994017
11277.405,0.010199238
11295.634,0.0101978102
11313.921,0.0101962375
11332.268,0.0101967294
11350.675,0.0101969142
11369.141,0.0101942254
11387.667,0.0101912027
11406.254,0.0101904725
11424.901,0.010190388
11443.61,0.010189219
11462.38,0.010188027
11481.211,0.0101870361
11500.105,0.0101846915
11519.06,0.0101812856
11538.079,0.0101789291
11557.16,0.0101779768
11576.304,0.0101771701
11595.511,0.0101762111
11614.783,0.0101758546
11634.118,0.0101760268
11653.518,0.0101759576
11672.983,0.0101755161
11692.513,0.0101755259
11712.108,0.0101764368
11731.769,0.0101776137
11751.496,0.010178289
11771.29,0.0101788685
11791.15,0.0101799047
11811.077,0.0101810433
11831.072,0.0101819722
11851.134,0.010183522
11871.265,0.0101858451
11891.464,0.0101878994
11911.731,0.0101893845
11932.068,0.010191202
11952.475,0.0101930886
11972.951,0.0101942019
11993.497,0.010195197
12014.114,0.010197301
12034.802,0.0101996277
12055.562,0.010200892
12076.393,0.0102013201
12097.296,0.010201209
12118.271,0.0102000624
12139.32,0.0101987205
12160.441,0.0101985051
12181.636,0.0101986738
12202.905,0.0101980029
12224.249,0.0101976604
12245.667,0.0101983102
12267.16,0.0101982418
12288.729,0.0101970477
12310.373,0.0101967751
12332.094,0.0101972777
12353.892,0.0101962159
12375.767,0.0101941362
12397.719,0.0101932606
12419.75,0.0101923009
12441.859,0.0101894646
12464.046,0.0101874864
12486.313,0.0101889536
12508.659,0.010191016
12531.086,0.0101908246
12553.593,0.0101900195
12576.18,0.0101895896
12598.85,0.010187331
12621.601,0.0101837436
12644.434,0.0101826353
12667.35,0.010184041
12690.349,0.010183827
12713.432,0.0101818305
12736.599,0.0101817307
12759.85,0.0101835017
12783.187,0.0101837926
12806.608,0.0101831169
12830.116,0.0101845141
12853.71,0.0101870365
12877.391,0.0101875651
12901.159,0.0101872847
12925.016,0.0101891486
12948.96,0.0101918726
12972.993,0.0101927865
12997.116,0.0101939226
13021.329,0.0101980181
13045.631,0.0102025061
13070.025,0.0102037754
13094.51,0.0102038042
13119.087,0.0102057045
13143.756,0.0102078546
13168.518,0.0102085681
13193.373,0.0102107759
13218.322,0.0102154775
13243.366,0.0102183713
13268.505,0.0102179405
13293.74,0.0102188511
13319.07,0.0102224735
13344.497,0.0102244011
13370.021,0.0102238604
13395.644,0.0102249808
13421.364,0.0102271554
13447.183,0.0102263463
13473.102,0.0102241267
13499.121,0.0102243868
13525.24,0.0102246126
13551.461,0.010221772
13577.783,0.010219117
13604.208,0.0102187416
13630.736,0.0102164663
13657.367,0.0102116103
13684.103,0.0102089149
13710.943,0.0102079444
13737.889,0.0102033854
13764.941,0.0101972762
13792.099,0.0101951343
13819.365,0.0101947048
13846.739,0.0101918974
13874.221,0.0101903844
13901.813,0.0101922062
13929.515,0.0101919184
13957.327,0.0101883827
13985.25,0.0101881704
14013.285,0.010190646
14041.433,0.0101889145
14069.694,0.0101856162
14098.068,0.0101879043
14126.558,0.0101906824
14155.163,0.0101863736
14183.883,0.0101808135
14212.721,0.0101803467
14241.676,0.0101779336
14270.749,0.0101705647
14299.94,0.0101686225
14329.252,0.0101747936
14358.684,0.0101774189
14388.237,0.0101746908
14417.911,0.0101761728
14447.709,0.010179465
14477.629,0.0101741108
14507.674,0.0101664519
14537.844,0.010168384
14568.139,0.0101737026
14598.561,0.0101718067
14629.109,0.0101700535
14659.786,0.0101751239
14690.592,0.0101774517
14721.528,0.0101717676
14752.594,0.0101694514
14783.791,0.0101729672
14815.121,0.010172209
14846.583,0.010167821
14878.179,0.0101712567
14909.91,0.0101782605
14941.777,0.0101764741
14973.78,0.0101659116
15005.92,0.0101559018
15038.198,0.0101444267
15070.616,0.0101330316
15103.173,0.0101259935
15135.871,0.0101235854
15168.712,0.0101171308
15201.695,0.0101114609
15234.821,0.0101033584
15268.092,0.0100897963
15301.509,0.0100704576
15335.072,0.01005763
15368.783,0.0100270386
15402.642,0.99726676
15436.651,0.99056686
15470.81,0.98635998
15505.12,0.98092456
15539.583,0.97501846
15574.199,0.9698005
15608.97,0.96730021
15643.896,0.95719283
15678.979,0.94312129
15714.22,0.92848425
15749.619,0.91896368
15785.178,0.90284287
15820.897,0.88378568
15856.779,0.86893224
15892.824,0.8633996
15929.033,0.84820467
15965.407,0.82278943
