Database of Origin,University of Winnipeg Spectrophotometer Facility
Sample Description,16.11. Meteorites - HEDs 16.11.3. NASA samples (4) Bruker Vertex 70 FTIR spectrometer
Other Information,MIR Glowbar KBr Beam Splitter MCT cryo cooled Dectect.
Date Added,2018-07-23 23:49:05.331069

Data ID,FTIR_MET2_6_9       
Sample ID,NWA 6013
Mineral Name,Olivine-rich diogenite
Grain Size,<45 um
Viewing Geometry,i30/ e0
Resolution,7.71cm-1

Wavelength
1672.316177,0.32588
1674.476792,0.3253
1676.642997,0.3254
1678.814814,0.32582
1680.992268,0.32618
1683.175374,0.32604
1685.364158,0.32477
1687.558643,0.3235
1689.758849,0.3224
1691.9648,0.3213
1694.176519,0.32101
1696.394027,0.32101
1698.61735,0.32105
1700.846507,0.32081
1703.081521,0.31988
1705.322418,0.31895
1707.569219,0.31848
1709.821949,0.31806
1712.08063,0.31711
1714.345286,0.31608
1716.615945,0.31577
1718.892624,0.31594
1721.175349,0.31594
1723.464146,0.31566
1725.759038,0.31548
1728.060049,0.31475
1730.367205,0.31357
1732.68053,0.31299
1735.000051,0.31261
1737.325788,0.3122
1739.657769,0.31192
1741.996018,0.31148
1744.340562,0.31075
1746.691425,0.31001
1749.048633,0.3093
1751.412211,0.30866
1753.78219,0.3085
1756.158588,0.3088
1758.541435,0.30861
1760.930758,0.30766
1763.326581,0.3067
1765.728933,0.30602
1768.13784,0.30574
1770.553328,0.30578
1772.975429,0.3055
1775.404162,0.30477
1777.839558,0.30438
1780.281645,0.3041
1782.73045,0.30335
1785.186001,0.30289
1787.648326,0.30256
1790.117454,0.30172
1792.593414,0.30091
1795.07623,0.30082
1797.565933,0.30103
1800.062552,0.30075
1802.566116,0.30047
1805.076653,0.30062
1807.594193,0.30043
1810.118766,0.29985
1812.650403,0.29918
1815.189129,0.29851
1817.734976,0.29827
1820.287974,0.29834
1822.848154,0.29838
1825.415545,0.29861
1827.990179,0.29886
1830.572085,0.29853
1833.161299,0.29815
1835.757844,0.29809
1838.361756,0.29775
1840.973065,0.29712
1843.591803,0.29675
1846.218001,0.29658
1848.851693,0.29618
1851.492909,0.29605
1854.141686,0.2959
1856.798049,0.29543
1859.462034,0.29477
1862.133675,0.29389
1864.813003,0.29353
1867.500053,0.29369
1870.194858,0.29377
1872.897451,0.29407
1875.60787,0.29416
1878.326142,0.29327
1881.052305,0.29225
1883.786392,0.2921
1886.528439,0.29242
1889.27848,0.29223
1892.03655,0.29136
1894.802685,0.2909
1897.576923,0.29144
1900.359294,0.29197
1903.149835,0.29225
1905.948585,0.29228
1908.755578,0.29195
1911.570851,0.29153
1914.394441,0.29098
1917.226385,0.29075
1920.066724,0.2907
1922.915487,0.2905
1925.772716,0.29043
1928.638449,0.29026
1931.512723,0.28983
1934.395578,0.28966
1937.28705,0.28989
1940.18718,0.29007
1943.09601,0.28989
1946.013571,0.28967
1948.939907,0.2896
1951.875057,0.28949
1954.819061,0.28957
1957.771959,0.28948
1960.733792,0.28895
1963.7046,0.28872
1966.684429,0.28901
1969.67331,0.2893
1972.671291,0.28942
1975.678411,0.28959
1978.694713,0.28991
1981.72024,0.29019
1984.755033,0.29007
1987.799135,0.28973
1990.852594,0.28973
1993.915443,0.29016
1996.987732,0.29054
2000.069502,0.29077
2003.160799,0.29104
2006.261667,0.29134
2009.37215,0.29169
2012.492292,0.29179
2015.622144,0.29174
2018.761742,0.29201
2021.911136,0.29241
2025.070371,0.29252
2028.239495,0.29269
2031.418553,0.29314
2034.607593,0.29352
2037.806661,0.29398
2041.015809,0.29441
2044.235076,0.29463
2047.464515,0.2949
2050.704173,0.29529
2053.9541,0.29564
2057.214344,0.29584
2060.484955,0.29607
2063.765981,0.29634
2067.057478,0.29662
2070.359486,0.29703
2073.672061,0.2974
2076.995253,0.29767
2080.329113,0.29814
2083.673693,0.29878
2087.029044,0.29923
2090.39522,0.29944
2093.772276,0.29979
2097.160256,0.30027
2100.559219,0.30067
2103.969217,0.30109
2107.390304,0.30167
2110.822536,0.30231
2114.265965,0.30274
2117.720647,0.30317
2121.186643,0.30366
2124.663997,0.30403
2128.152772,0.3043
2131.653022,0.30457
2135.164806,0.305
2138.68818,0.30561
2142.223201,0.30629
2145.769927,0.30681
2149.328422,0.30704
2152.898735,0.30715
2156.480928,0.30753
2160.075063,0.30814
2163.681197,0.30866
2167.299393,0.3091
2170.929709,0.30941
2174.572208,0.30957
2178.226956,0.30994
2181.894004,0.31051
2185.57342,0.31116
2189.265266,0.31174
2192.969606,0.3121
2196.686503,0.3126
2200.416021,0.31333
2204.158225,0.31397
2207.913183,0.3144
2211.680953,0.31477
2215.461603,0.3153
2219.255201,0.31575
2223.061813,0.31598
2226.881507,0.31648
2230.714349,0.31703
2234.560407,0.3173
2238.419756,0.31773
2242.292454,0.31819
2246.178575,0.31846
2250.07819,0.31889
2253.991369,0.31934
2257.918183,0.31967
2261.858702,0.32014
2265.813,0.32055
2269.781154,0.32084
2273.763225,0.32131
2277.759293,0.32179
2281.769432,0.32205
2285.793716,0.3223
2289.832221,0.32265
2293.88502,0.32306
2297.952192,0.32335
2302.033816,0.32355
2306.129961,0.32405
2310.240709,0.32484
2314.366139,0.32534
2318.506328,0.32529
2322.661356,0.32525
2326.831304,0.32558
2331.016252,0.32599
2335.216286,0.32644
2339.431477,0.32709
2343.661913,0.32748
2347.907677,0.32738
2352.168852,0.3273
2356.445521,0.3274
2360.737771,0.32773
2365.045686,0.32832
2369.369358,0.32895
2373.708861,0.32941
2378.06429,0.32972
2382.435731,0.32978
2386.823273,0.3297
2391.227005,0.32997
2395.647017,0.33042
2400.0834,0.33074
2404.53625,0.33099
2409.005647,0.33104
2413.491691,0.33109
2417.994473,0.33135
2422.514088,0.33161
2427.050631,0.33189
2431.604196,0.33243
2436.17488,0.33283
2440.762785,0.33286
2445.367997,0.33303
2449.99062,0.33335
2454.630753,0.33345
2459.288496,0.33347
2463.963948,0.33375
2468.657212,0.33419
2473.368389,0.33459
2478.097588,0.33494
2482.844901,0.33529
2487.610438,0.33558
2492.394303,0.33564
2497.196603,0.33567
2502.017445,0.33584
2506.856937,0.33602
2511.715186,0.33616
2516.592308,0.33636
2521.488402,0.33686
2526.403583,0.33764
2531.337964,0.33826
2536.291658,0.33858
2541.264778,0.33909
2546.257439,0.33961
2551.269756,0.33958
2556.301852,0.3399
2561.353831,0.34115
2566.425818,0.34206
2571.517932,0.34265
2576.630293,0.34355
2581.763021,0.34451
2586.91624,0.34522
2592.090072,0.34554
2597.284647,0.34578
2602.500077,0.34643
2607.736495,0.34665
2612.994027,0.34667
2618.272802,0.34619
2623.572949,0.34536
2628.894597,0.34508
2634.237878,0.34333
2639.60293,0.34179
2644.989874,0.34162
2650.398851,0.34219
2655.829995,0.34392
2661.283444,0.34711
2666.759335,0.35084
2672.257807,0.35327
2677.779,0.35395
2683.323062,0.35203
2688.890121,0.34927
2694.480328,0.34752
2700.093828,0.34609
2705.730766,0.34486
2711.39129,0.34364
2717.075548,0.34284
2722.783689,0.34071
2728.515871,0.33774
2734.272233,0.33785
2740.052934,0.33849
2745.85813,0.33726
2751.687977,0.3375
2757.542631,0.33816
2763.422252,0.33641
2769.327,0.33372
2775.257043,0.3323
2781.212529,0.33121
2787.19363,0.32855
2793.200512,0.32586
2799.233341,0.32468
2805.292287,0.32319
2811.377519,0.32122
2817.489208,0.31994
2823.627536,0.31879
2829.79266,0.31802
2835.984766,0.31727
2842.20403,0.31609
2848.450631,0.31551
2854.72475,0.31478
2861.02657,0.31331
2867.356274,0.31236
2873.714055,0.31188
2880.100086,0.3112
2886.514561,0.31024
2892.957673,0.30953
2899.429613,0.30933
2905.930575,0.309
2912.460755,0.30847
2919.020351,0.30796
2925.609569,0.30732
2932.228594,0.30681
2938.877637,0.30658
2945.556904,0.30644
2952.266599,0.30618
2959.006933,0.30583
2965.778115,0.30559
2972.580357,0.30544
2979.413883,0.30519
2986.278891,0.30487
2993.175608,0.3048
3000.104254,0.30503
3007.065051,0.30501
3014.058225,0.30473
3021.084,0.30458
3028.142607,0.30456
3035.234283,0.30459
3042.359245,0.30464
3049.517737,0.30463
3056.709994,0.30441
3063.936258,0.30436
3071.196769,0.30463
3078.491772,0.30493
3085.821513,0.30531
3093.186251,0.30533
3100.586217,0.30521
3108.021674,0.30539
3115.492879,0.30534
3123.000089,0.30523
3130.543567,0.30545
3138.123574,0.30574
3145.740377,0.30578
3153.394256,0.30589
3161.08546,0.30635
3168.814274,0.30681
3176.580974,0.3073
3184.38584,0.30799
3192.229154,0.30872
3200.1112,0.30939
3208.032266,0.30999
3215.992653,0.31061
3223.992633,0.3116
3232.032514,0.3127
3240.112594,0.31336
3248.233176,0.31385
3256.394564,0.31454
3264.597068,0.3153
3272.840999,0.31593
3281.126681,0.31661
3289.454413,0.31749
3297.824524,0.31828
3306.237341,0.3187
3314.693189,0.3189
3323.192401,0.31901
3331.735311,0.31914
3340.322256,0.31919
3348.95359,0.31889
3357.629634,0.31802
3366.350748,0.31628
3375.117285,0.31419
3383.929601,0.31319
3392.788054,0.31305
3401.693008,0.3118
3410.64483,0.30937
3419.643903,0.30799
3428.690579,0.30934
3437.785247,0.3125
3446.928291,0.31547
3456.120099,0.31754
3465.36106,0.31878
3474.651571,0.31916
3483.99203,0.31885
3493.382855,0.31798
3502.824429,0.31737
3512.317177,0.31891
3521.861515,0.32214
3531.457866,0.32475
3541.106657,0.3262
3550.808317,0.32717
3560.563284,0.32784
3570.372009,0.32828
3580.234914,0.32873
3590.15246,0.32939
3600.125104,0.33001
3610.153306,0.33035
3620.237532,0.33067
3630.378252,0.33107
3640.575942,0.33142
3650.831097,0.33163
3661.144177,0.33189
3671.515689,0.33226
3681.946129,0.33265
3692.436003,0.33298
3702.985818,0.33331
3713.596091,0.33376
3724.267342,0.33415
3735.000113,0.33432
3745.79491,0.3344
3756.652285,0.33451
3767.572784,0.33479
3778.556959,0.33502
3789.605369,0.33493
3800.71858,0.33483
3811.897162,0.33496
3823.141709,0.33509
3834.452778,0.33515
3845.830974,0.33531
3857.276898,0.33554
3868.791155,0.3356
3880.37436,0.33551
3892.027134,0.33553
3903.750106,0.33552
3915.543926,0.33547
3927.409209,0.33557
3939.346621,0.33571
3951.356822,0.33567
3963.44048,0.33549
3975.598271,0.33535
3987.830879,0.33541
4000.138997,0.33548
4012.523342,0.33539
4024.984593,0.33542
4037.523484,0.33552
4050.140742,0.33535
4062.837106,0.33525
4075.613322,0.33537
4088.470144,0.33539
4101.408338,0.33525
4114.428697,0.33503
4127.531971,0.33477
4140.718972,0.33462
4153.990505,0.3345
4167.347385,0.33466
4180.790439,0.33866
4194.320503,0.35569
4207.938425,0.39634
4221.64508,0.46082
4235.441304,0.49885
4249.327994,0.47894
4263.306045,0.46431
4277.376359,0.46296
4291.539855,0.44902
4305.79746,0.42103
4320.150116,0.39101
4334.598795,0.36672
4349.144426,0.35035
4363.788008,0.34064
4378.530532,0.33575
4393.373006,0.33411
4408.316449,0.33367
4423.361896,0.33286
4438.510393,0.33155
4453.763023,0.33036
4469.120824,0.32952
4484.584908,0.32884
4500.15638,0.32832
4515.836365,0.32789
4531.626,0.32739
4547.52644,0.32659
4563.538854,0.32543
4579.664452,0.32426
4595.904394,0.32322
4612.259923,0.32182
4628.732277,0.31963
4645.322713,0.31725
4662.032504,0.3152
4678.862943,0.31339
4695.815342,0.31165
4712.891054,0.31003
4730.091384,0.30883
4747.417723,0.30769
4764.871462,0.30618
4782.45401,0.30426
4800.1668,0.30199
4818.011283,0.29963
4835.988934,0.29756
4854.101273,0.2959
4872.349771,0.29468
4890.735994,0.29357
4909.261506,0.2923
4927.927896,0.29091
4946.736778,0.28929
4965.68979,0.28743
4984.788594,0.2859
5004.034903,0.28479
5023.430384,0.28369
5042.976803,0.28226
5062.675928,0.28042
5082.529556,0.27804
5102.539511,0.27505
5122.707649,0.27225
5143.03585,0.27026
5163.526056,0.26901
5184.180157,0.26908
5205.000154,0.27049
5225.988055,0.27222
5247.145898,0.27383
5268.475756,0.2757
5289.979735,0.27772
5311.659976,0.27957
5333.518684,0.28123
5355.558014,0.28151
5377.780242,0.28013
5400.187657,0.27894
5422.78258,0.27805
5445.567377,0.27747
5468.544451,0.27729
5491.716246,0.2769
5515.085278,0.27681
5538.654014,0.2766
5562.425058,0.27491
5586.401024,0.27138
5610.584574,0.26837
5634.978416,0.2665
5659.585305,0.26466
5684.408043,0.26389
5709.449517,0.26468
5734.712564,0.26542
5760.200171,0.26488
5785.915346,0.26391
5811.861151,0.26394
5838.040701,0.26426
5864.457171,0.2639
5891.11379,0.26158
5918.013883,0.25773
5945.160732,0.25321
5972.557781,0.24835
6000.208507,0.24478
6028.116449,0.24408
6056.285213,0.2458
6084.718472,0.24657
6113.41997,0.24589
6142.393557,0.24485
6171.643046,0.24342
6201.172433,0.24169
6230.985758,0.24089
6261.087133,0.24116
6291.480755,0.24199
6322.1709,0.2441
6353.161929,0.24817
6384.458328,0.25261
6416.064553,0.25519
6447.985267,0.25575
6480.225188,0.25606
6512.789128,0.25493
6545.681997,0.25336
6578.908804,0.25194
6612.47466,0.25044
6646.384825,0.24946
6680.644535,0.24858
6715.259268,0.24722
6750.234571,0.24542
6785.576107,0.24329
6821.28966,0.24103
6857.381134,0.23863
6893.856559,0.23586
6930.722144,0.23437
6967.984085,0.23392
7005.648858,0.23327
7043.72303,0.23204
7082.213314,0.23066
7121.126567,0.23009
7160.469802,0.22942
7200.250183,0.22745
7240.47509,0.2252
7281.15191,0.2231
7322.288355,0.22028
7363.892259,0.21666
7405.971636,0.21326
7448.534685,0.21013
7491.589791,0.20649
7535.145539,0.20303
7579.210768,0.20006
7623.794353,0.19704
7668.905555,0.19398
7714.553795,0.1908
7760.74872,0.18733
7807.500211,0.18371
7854.818386,0.18009
7902.713612,0.17631
7951.196573,0.17224
8000.278026,0.16822
8049.969186,0.1644
8100.281485,0.1605
8151.226643,0.15655
8202.816677,0.15274
8255.063908,0.14917
8307.980976,0.14576
8361.580914,0.14245
8415.876885,0.13943
8470.882607,0.13688
8526.612089,0.13492
8583.07971,0.13384
8640.300232,0.13394
8698.288814,0.13477
8757.061026,0.13508
8816.632938,0.13517
8877.020825,0.13581
8938.241648,0.13785
9000.312761,0.14171
9063.252001,0.14473
9127.077709,0.14485
9191.808745,0.14346
9257.464511,0.14214
9324.065051,0.14143
9391.630729,0.14151
9460.182767,0.14174
9529.742923,0.14009
9600.3336,0.13526
9671.977869,0.12836
9744.699495,0.12195
9818.522964,0.11825
9893.473606,0.11776
9969.577237,0.1199
10046.86077,0.12426
10125.35186,0.12936
10205.07902,0.13258
10286.0717,0.132
10368.36026,0.12942
10451.97605,0.12829
10536.95157,0.12868
10623.32001,0.12903
10711.11603,0.12818
10800.37531,0.12527
10891.13475,0.12133
10983.43249,0.11895
11077.30797,0.12
11172.80199,0.12457
11269.9569,0.12943
11368.81615,0.13091
11469.42513,0.12914
11571.83069,0.12651
11676.0814,0.12528
11782.22758,0.12601
11890.32139,0.12869
12000.41694,0.13449
12112.5705,0.14309
12226.84001,0.15189
12343.28609,0.15876
12461.97152,0.16282
12582.96151,0.16452
12706.32386,0.16506
12832.12902,0.1656
12960.45029,0.16545
13091.36408,0.16242
13224.94941,0.15608
13361.28907,0.14755
13500.46914,0.13919
13642.57932,0.13292
13787.71312,0.13049
13935.96807,0.13154
14087.44596,0.13179
14242.25324,0.12919
14400.50047,0.12544
14562.30382,0.1222
14727.78452,0.12047
14897.06937,0.11888
15070.29108,0.11286
15247.58859,0.1053
15429.10747,0.10146
15615.00054,0.10072
15805.42735,0.10143
16000.55605,0.10367
16200.56297,0.10729
16405.63335,0.11154
16615.96195,0.11548
16831.75363,0.11795
17053.22403,0.11885
17280.60061,0.11901
17514.12221,0.11786
17754.04165,0.11522
18000.62552,0.11456
18254.15542,0.11704
18514.92902,0.1187
18783.26128,0.11897
19059.48566,0.12179
19343.95592,0.12704
19637.04612,0.12921
19939.15447,0.12735
20250.70371,0.12323
20572.1434,0.11739
20903.95211,0.11093
21246.63979,0.10462
21600.75039,0.1017
21966.86522,0.10405
22345.60422,0.1071
22737.6323,0.10526
23143.66139,0.10241
23564.45516,0.10435
24000.83388,0.11318
24453.67973,0.13223
24923.94272,0.14808
25412.64804,0.14451
