Database of Origin,University of Winnipeg Spectrophotometer Facility
Sample Description,16.11. Meteorites - HEDs 16.11.3. NASA samples (4) Bruker Vertex 70 FTIR spectrometer
Other Information,MIR Glowbar KBr Beam Splitter MCT cryo cooled Dectect.
Date Added,2018-07-23 23:49:05.369793

Data ID,FTIR_MET2_6_11      
Sample ID,NWA 5751
Mineral Name,Howardite
Grain Size,45-90 um
Viewing Geometry,i30/ e0
Resolution,7.71cm-1

Wavelength
1672.316177,0.3396
1674.476792,0.3394
1676.642997,0.33889
1678.814814,0.3374
1680.992268,0.33574
1683.175374,0.33445
1685.364158,0.33315
1687.558643,0.33226
1689.758849,0.33162
1691.9648,0.33026
1694.176519,0.3289
1696.394027,0.32852
1698.61735,0.32776
1700.846507,0.32591
1703.081521,0.32436
1705.322418,0.32385
1707.569219,0.32331
1709.821949,0.32199
1712.08063,0.32078
1714.345286,0.31999
1716.615945,0.3189
1718.892624,0.31751
1721.175349,0.31701
1723.464146,0.31706
1725.759038,0.31637
1728.060049,0.31507
1730.367205,0.31358
1732.68053,0.31228
1735.000051,0.3116
1737.325788,0.31113
1739.657769,0.3101
1741.996018,0.30897
1744.340562,0.30861
1746.691425,0.30794
1749.048633,0.30669
1751.412211,0.30589
1753.78219,0.30491
1756.158588,0.30355
1758.541435,0.30244
1760.930758,0.30158
1763.326581,0.30109
1765.728933,0.30029
1768.13784,0.29905
1770.553328,0.29833
1772.975429,0.29747
1775.404162,0.29619
1777.839558,0.29545
1780.281645,0.29494
1782.73045,0.29437
1785.186001,0.29383
1787.648326,0.29296
1790.117454,0.29168
1792.593414,0.2906
1795.07623,0.29005
1797.565933,0.28945
1800.062552,0.28846
1802.566116,0.2873
1805.076653,0.28637
1807.594193,0.28589
1810.118766,0.28584
1812.650403,0.28547
1815.189129,0.28465
1817.734976,0.28418
1820.287974,0.28407
1822.848154,0.2841
1825.415545,0.28351
1827.990179,0.28162
1830.572085,0.28019
1833.161299,0.28008
1835.757844,0.27969
1838.361756,0.27863
1840.973065,0.27772
1843.591803,0.27762
1846.218001,0.27778
1848.851693,0.27726
1851.492909,0.2767
1854.141686,0.27595
1856.798049,0.27503
1859.462034,0.27442
1862.133675,0.27419
1864.813003,0.27425
1867.500053,0.27405
1870.194858,0.27301
1872.897451,0.27213
1875.60787,0.2724
1878.326142,0.27262
1881.052305,0.27219
1883.786392,0.27156
1886.528439,0.27131
1889.27848,0.2712
1892.03655,0.27054
1894.802685,0.26999
1897.576923,0.26977
1900.359294,0.26913
1903.149835,0.26845
1905.948585,0.26786
1908.755578,0.26752
1911.570851,0.26736
1914.394441,0.26686
1917.226385,0.26608
1920.066724,0.26494
1922.915487,0.26431
1925.772716,0.26441
1928.638449,0.26459
1931.512723,0.26476
1934.395578,0.26455
1937.28705,0.26387
1940.18718,0.2634
1943.09601,0.26364
1946.013571,0.26383
1948.939907,0.26336
1951.875057,0.26293
1954.819061,0.26322
1957.771959,0.26366
1960.733792,0.26341
1963.7046,0.2629
1966.684429,0.26281
1969.67331,0.26274
1972.671291,0.26252
1975.678411,0.26222
1978.694713,0.2619
1981.72024,0.26241
1984.755033,0.2633
1987.799135,0.26315
1990.852594,0.26243
1993.915443,0.26227
1996.987732,0.26235
2000.069502,0.26208
2003.160799,0.26169
2006.261667,0.26156
2009.37215,0.26188
2012.492292,0.26246
2015.622144,0.26276
2018.761742,0.26258
2021.911136,0.26254
2025.070371,0.26261
2028.239495,0.26263
2031.418553,0.26279
2034.607593,0.26286
2037.806661,0.26278
2041.015809,0.2627
2044.235076,0.26283
2047.464515,0.26336
2050.704173,0.26386
2053.9541,0.2642
2057.214344,0.26452
2060.484955,0.26474
2063.765981,0.26477
2067.057478,0.26474
2070.359486,0.26505
2073.672061,0.26549
2076.995253,0.26587
2080.329113,0.26634
2083.673693,0.26692
2087.029044,0.26767
2090.39522,0.26818
2093.772276,0.26836
2097.160256,0.26847
2100.559219,0.2686
2103.969217,0.26892
2107.390304,0.26939
2110.822536,0.26978
2114.265965,0.27025
2117.720647,0.27082
2121.186643,0.27121
2124.663997,0.27152
2128.152772,0.27213
2131.653022,0.27277
2135.164806,0.27305
2138.68818,0.27338
2142.223201,0.27399
2145.769927,0.27455
2149.328422,0.27487
2152.898735,0.27528
2156.480928,0.27605
2160.075063,0.27679
2163.681197,0.27755
2167.299393,0.27855
2170.929709,0.27918
2174.572208,0.27944
2178.226956,0.27994
2181.894004,0.28077
2185.57342,0.28157
2189.265266,0.2822
2192.969606,0.28283
2196.686503,0.28356
2200.416021,0.28443
2204.158225,0.28534
2207.913183,0.28602
2211.680953,0.2865
2215.461603,0.28725
2219.255201,0.28827
2223.061813,0.28904
2226.881507,0.2895
2230.714349,0.29007
2234.560407,0.29098
2238.419756,0.29197
2242.292454,0.29283
2246.178575,0.29352
2250.07819,0.29412
2253.991369,0.29492
2257.918183,0.29585
2261.858702,0.29659
2265.813,0.29728
2269.781154,0.29798
2273.763225,0.29872
2277.759293,0.29982
2281.769432,0.30113
2285.793716,0.30209
2289.832221,0.30274
2293.88502,0.30339
2297.952192,0.3041
2302.033816,0.30497
2306.129961,0.30581
2310.240709,0.3064
2314.366139,0.30685
2318.506328,0.30738
2322.661356,0.30836
2326.831304,0.30948
2331.016252,0.31041
2335.216286,0.31137
2339.431477,0.31258
2343.661913,0.31371
2347.907677,0.31444
2352.168852,0.31498
2356.445521,0.31563
2360.737771,0.31639
2365.045686,0.31726
2369.369358,0.31817
2373.708861,0.31885
2378.06429,0.3194
2382.435731,0.32018
2386.823273,0.32107
2391.227005,0.3219
2395.647017,0.32281
2400.0834,0.3238
2404.53625,0.32468
2409.005647,0.32537
2413.491691,0.32603
2417.994473,0.32685
2422.514088,0.32762
2427.050631,0.3282
2431.604196,0.32896
2436.17488,0.32988
2440.762785,0.3306
2445.367997,0.33117
2449.99062,0.3318
2454.630753,0.33257
2459.288496,0.33354
2463.963948,0.33445
2468.657212,0.3351
2473.368389,0.33568
2478.097588,0.33634
2482.844901,0.33697
2487.610438,0.33765
2492.394303,0.33839
2497.196603,0.3388
2502.017445,0.33895
2506.856937,0.33945
2511.715186,0.34041
2516.592308,0.34133
2521.488402,0.3418
2526.403583,0.34207
2531.337964,0.34237
2536.291658,0.34274
2541.264778,0.34307
2546.257439,0.3432
2551.269756,0.34374
2556.301852,0.34458
2561.353831,0.34452
2566.425818,0.34463
2571.517932,0.34553
2576.630293,0.34602
2581.763021,0.34629
2586.91624,0.34706
2592.090072,0.34803
2597.284647,0.34857
2602.500077,0.34896
2607.736495,0.3492
2612.994027,0.34991
2618.272802,0.35008
2623.572949,0.35021
2628.894597,0.35013
2634.237878,0.3499
2639.60293,0.35051
2644.989874,0.35093
2650.398851,0.35118
2655.829995,0.35149
2661.283444,0.35136
2666.759335,0.35009
2672.257807,0.34919
2677.779,0.34921
2683.323062,0.34779
2688.890121,0.34394
2694.480328,0.33683
2700.093828,0.32771
2705.730766,0.31769
2711.39129,0.30677
2717.075548,0.29747
2722.783689,0.28792
2728.515871,0.28129
2734.272233,0.27677
2740.052934,0.2692
2745.85813,0.26367
2751.687977,0.26084
2757.542631,0.25649
2763.422252,0.25181
2769.327,0.24812
2775.257043,0.24586
2781.212529,0.24334
2787.19363,0.24
2793.200512,0.2381
2799.233341,0.23688
2805.292287,0.23505
2811.377519,0.23383
2817.489208,0.23265
2823.627536,0.23136
2829.79266,0.23036
2835.984766,0.22904
2842.20403,0.22777
2848.450631,0.22676
2854.72475,0.22594
2861.02657,0.22521
2867.356274,0.22413
2873.714055,0.22294
2880.100086,0.22215
2886.514561,0.22164
2892.957673,0.22129
2899.429613,0.22102
2905.930575,0.22079
2912.460755,0.2206
2919.020351,0.22027
2925.609569,0.21988
2932.228594,0.21958
2938.877637,0.21932
2945.556904,0.21927
2952.266599,0.21929
2959.006933,0.21915
2965.778115,0.2192
2972.580357,0.21938
2979.413883,0.21948
2986.278891,0.21982
2993.175608,0.22041
3000.104254,0.22114
3007.065051,0.22208
3014.058225,0.22322
3021.084,0.22438
3028.142607,0.22511
3035.234283,0.22534
3042.359245,0.22572
3049.517737,0.22637
3056.709994,0.22716
3063.936258,0.22799
3071.196769,0.22864
3078.491772,0.22912
3085.821513,0.22973
3093.186251,0.23054
3100.586217,0.23124
3108.021674,0.23199
3115.492879,0.23322
3123.000089,0.23465
3130.543567,0.23609
3138.123574,0.23763
3145.740377,0.23913
3153.394256,0.24047
3161.08546,0.24181
3168.814274,0.24311
3176.580974,0.2443
3184.38584,0.24572
3192.229154,0.24747
3200.1112,0.24908
3208.032266,0.25041
3215.992653,0.25178
3223.992633,0.25343
3232.032514,0.25505
3240.112594,0.2564
3248.233176,0.25779
3256.394564,0.25939
3264.597068,0.26097
3272.840999,0.26242
3281.126681,0.26391
3289.454413,0.26545
3297.824524,0.26699
3306.237341,0.26844
3314.693189,0.26961
3323.192401,0.27025
3331.735311,0.27057
3340.322256,0.2708
3348.95359,0.27108
3357.629634,0.27178
3366.350748,0.27303
3375.117285,0.27433
3383.929601,0.2752
3392.788054,0.27564
3401.693008,0.27545
3410.64483,0.27485
3419.643903,0.27518
3428.690579,0.27713
3437.785247,0.2797
3446.928291,0.28189
3456.120099,0.28349
3465.36106,0.28453
3474.651571,0.28526
3483.99203,0.28589
3493.382855,0.28656
3502.824429,0.28759
3512.317177,0.2894
3521.861515,0.29172
3531.457866,0.29382
3541.106657,0.29543
3550.808317,0.29658
3560.563284,0.29731
3570.372009,0.29798
3580.234914,0.29879
3590.15246,0.29965
3600.125104,0.30052
3610.153306,0.3013
3620.237532,0.30191
3630.378252,0.30246
3640.575942,0.30301
3650.831097,0.30352
3661.144177,0.30405
3671.515689,0.30483
3681.946129,0.30582
3692.436003,0.30667
3702.985818,0.30723
3713.596091,0.30767
3724.267342,0.30816
3735.000113,0.30858
3745.79491,0.30893
3756.652285,0.3095
3767.572784,0.31027
3778.556959,0.31102
3789.605369,0.31168
3800.71858,0.31235
3811.897162,0.31302
3823.141709,0.31346
3834.452778,0.31364
3845.830974,0.31378
3857.276898,0.31403
3868.791155,0.31438
3880.37436,0.31459
3892.027134,0.3147
3903.750106,0.31478
3915.543926,0.31463
3927.409209,0.31424
3939.346621,0.31387
3951.356822,0.31365
3963.44048,0.31328
3975.598271,0.31276
3987.830879,0.31257
4000.138997,0.31282
4012.523342,0.31321
4024.984593,0.31339
4037.523484,0.31336
4050.140742,0.31322
4062.837106,0.31305
4075.613322,0.31277
4088.470144,0.3124
4101.408338,0.31206
4114.428697,0.31172
4127.531971,0.31131
4140.718972,0.31079
4153.990505,0.31031
4167.347385,0.31026
4180.790439,0.31283
4194.320503,0.32403
4207.938425,0.35048
4221.64508,0.39144
4235.441304,0.41479
4249.327994,0.40224
4263.306045,0.39351
4277.376359,0.39223
4291.539855,0.3817
4305.79746,0.36222
4320.150116,0.34232
4334.598795,0.32666
4349.144426,0.31598
4363.788008,0.30954
4378.530532,0.30636
4393.373006,0.30533
4408.316449,0.30485
4423.361896,0.30394
4438.510393,0.30283
4453.763023,0.30174
4469.120824,0.30068
4484.584908,0.30003
4500.15638,0.29957
4515.836365,0.29874
4531.626,0.2978
4547.52644,0.2971
4563.538854,0.29623
4579.664452,0.29475
4595.904394,0.29293
4612.259923,0.2908
4628.732277,0.28796
4645.322713,0.2848
4662.032504,0.28187
4678.862943,0.27883
4695.815342,0.27562
4712.891054,0.27237
4730.091384,0.26934
4747.417723,0.2669
4764.871462,0.26491
4782.45401,0.26288
4800.1668,0.26067
4818.011283,0.25809
4835.988934,0.25534
4854.101273,0.25324
4872.349771,0.25201
4890.735994,0.25108
4909.261506,0.24996
4927.927896,0.24831
4946.736778,0.24622
4965.68979,0.24416
4984.788594,0.24263
5004.034903,0.24127
5023.430384,0.23963
5042.976803,0.23798
5062.675928,0.23602
5082.529556,0.23335
5102.539511,0.23081
5122.707649,0.22862
5143.03585,0.22651
5163.526056,0.22496
5184.180157,0.22429
5205.000154,0.22418
5225.988055,0.22475
5247.145898,0.22596
5268.475756,0.22762
5289.979735,0.22989
5311.659976,0.23257
5333.518684,0.23476
5355.558014,0.23584
5377.780242,0.2362
5400.187657,0.23603
5422.78258,0.23568
5445.567377,0.23605
5468.544451,0.23687
5491.716246,0.23772
5515.085278,0.23813
5538.654014,0.23735
5562.425058,0.23534
5586.401024,0.23303
5610.584574,0.23159
5634.978416,0.23026
5659.585305,0.22871
5684.408043,0.22753
5709.449517,0.226
5734.712564,0.22409
5760.200171,0.22217
5785.915346,0.22069
5811.861151,0.2195
5838.040701,0.21804
5864.457171,0.21599
5891.11379,0.21118
5918.013883,0.20536
5945.160732,0.19984
5972.557781,0.19544
6000.208507,0.1934
6028.116449,0.19278
6056.285213,0.19175
6084.718472,0.19078
6113.41997,0.19049
6142.393557,0.19016
6171.643046,0.19002
6201.172433,0.1904
6230.985758,0.19125
6261.087133,0.19237
6291.480755,0.19401
6322.1709,0.19643
6353.161929,0.19952
6384.458328,0.20224
6416.064553,0.20353
6447.985267,0.20387
6480.225188,0.20361
6512.789128,0.20285
6545.681997,0.20261
6578.908804,0.20203
6612.47466,0.20153
6646.384825,0.20187
6680.644535,0.20209
6715.259268,0.20176
6750.234571,0.20142
6785.576107,0.20076
6821.28966,0.19982
6857.381134,0.19865
6893.856559,0.19772
6930.722144,0.19718
6967.984085,0.19613
7005.648858,0.19504
7043.72303,0.1943
7082.213314,0.19439
7121.126567,0.19524
7160.469802,0.19587
7200.250183,0.19616
7240.47509,0.19604
7281.15191,0.19529
7322.288355,0.19441
7363.892259,0.19389
7405.971636,0.19327
7448.534685,0.19184
7491.589791,0.19006
7535.145539,0.18856
7579.210768,0.18691
7623.794353,0.18518
7668.905555,0.18365
7714.553795,0.18201
7760.74872,0.18017
7807.500211,0.17841
7854.818386,0.17685
7902.713612,0.17536
7951.196573,0.1741
8000.278026,0.17309
8049.969186,0.172
8100.281485,0.1711
8151.226643,0.17064
8202.816677,0.17012
8255.063908,0.16942
8307.980976,0.16868
8361.580914,0.16791
8415.876885,0.16753
8470.882607,0.16745
8526.612089,0.16706
8583.07971,0.16654
8640.300232,0.16659
8698.288814,0.16762
8757.061026,0.16943
8816.632938,0.17213
8877.020825,0.17654
8938.241648,0.18276
9000.312761,0.18914
9063.252001,0.19364
9127.077709,0.19535
9191.808745,0.19492
9257.464511,0.19335
9324.065051,0.19186
9391.630729,0.19161
9460.182767,0.19181
9529.742923,0.19134
9600.3336,0.18974
9671.977869,0.18698
9744.699495,0.1836
9818.522964,0.18004
9893.473606,0.17717
9969.577237,0.17657
10046.86077,0.17862
10125.35186,0.18124
10205.07902,0.18296
10286.0717,0.1841
10368.36026,0.18458
10451.97605,0.18407
10536.95157,0.18265
10623.32001,0.18077
10711.11603,0.17911
10800.37531,0.17715
10891.13475,0.17445
10983.43249,0.17343
11077.30797,0.17697
11172.80199,0.18361
11269.9569,0.18789
11368.81615,0.18736
11469.42513,0.18445
11571.83069,0.18155
11676.0814,0.17912
11782.22758,0.1773
11890.32139,0.17605
12000.41694,0.17511
12112.5705,0.17422
12226.84001,0.17311
12343.28609,0.17203
12461.97152,0.17131
12582.96151,0.17069
12706.32386,0.17029
12832.12902,0.17023
12960.45029,0.16966
13091.36408,0.16892
13224.94941,0.16899
13361.28907,0.16953
13500.46914,0.16984
13642.57932,0.17007
13787.71312,0.17107
13935.96807,0.17229
14087.44596,0.17291
14242.25324,0.17327
14400.50047,0.17394
14562.30382,0.17476
14727.78452,0.17463
14897.06937,0.17292
15070.29108,0.16978
15247.58859,0.16785
15429.10747,0.16685
15615.00054,0.16437
15805.42735,0.16169
16000.55605,0.16092
16200.56297,0.16252
16405.63335,0.16634
16615.96195,0.17155
16831.75363,0.17522
17053.22403,0.17716
17280.60061,0.17974
17514.12221,0.18258
17754.04165,0.18397
18000.62552,0.18397
18254.15542,0.18425
18514.92902,0.18445
18783.26128,0.18528
19059.48566,0.18949
19343.95592,0.19516
19637.04612,0.19676
19939.15447,0.1948
20250.70371,0.19125
20572.1434,0.18628
20903.95211,0.18148
21246.63979,0.17752
21600.75039,0.175
21966.86522,0.17365
22345.60422,0.17331
22737.6323,0.17447
23143.66139,0.17589
23564.45516,0.17162
24000.83388,0.1633
24453.67973,0.16228
24923.94272,0.16882
25412.64804,0.18404
