Database of Origin,University of Winnipeg Spectrophotometer Facility
Sample Description,"HOSERLab master pyroxenes, FTIR data"
Date Added,2016-12-14 03:34:49.545495

Data ID,FTIR_PYX_02         
Sample ID,PYX003
Mineral Name,Orthopyroxene
Grain Size,45-90 um
Viewing Geometry,"i=30, e=0"
Material Class,Inosilicate

Wavelength
2000.56,0.25676858
2001.142,0.25709294
2001.725,0.25740822
2002.307,0.25780304
2002.891,0.258253
2003.474,0.25870428
2004.058,0.25913521
2004.643,0.25947706
2005.227,0.25963604
2005.812,0.25965934
2006.397,0.259719
2006.983,0.25991058
2007.569,0.2601888
2008.155,0.26050231
2008.742,0.26084803
2009.329,0.26120557
2009.916,0.26152723
2010.504,0.26180291
2011.092,0.26207244
2011.68,0.2623776
2012.269,0.26273522
2012.858,0.26314969
2013.447,0.26360198
2014.037,0.26402738
2014.627,0.26434655
2015.217,0.26455723
2015.808,0.26475276
2016.399,0.26500875
2016.99,0.26530339
2017.582,0.26561367
2018.174,0.26598902
2018.766,0.26643991
2019.359,0.26685833
2019.952,0.26716111
2020.546,0.26738477
2021.139,0.26757512
2021.733,0.2677334
2022.328,0.26792873
2022.923,0.26826428
2023.518,0.26868718
2024.113,0.269032
2024.709,0.26927781
2025.305,0.26954356
2025.902,0.26987346
2026.499,0.27023988
2027.096,0.27067603
2027.693,0.27117438
2028.291,0.27158009
2028.89,0.27179979
2029.488,0.27197094
2030.087,0.27224201
2030.686,0.27257018
2031.286,0.27286276
2031.886,0.27312682
2032.486,0.27338115
2033.087,0.27361459
2033.688,0.27388168
2034.289,0.27425878
2034.891,0.27469502
2035.493,0.27507213
2036.096,0.27537576
2036.698,0.27567792
2037.302,0.27601046
2037.905,0.27637524
2038.509,0.27679844
2039.113,0.27728612
2039.718,0.27776646
2040.322,0.27814105
2040.928,0.27838077
2041.533,0.27856951
2042.139,0.27885024
2042.746,0.27930102
2043.352,0.27985939
2043.959,0.28039203
2044.567,0.28079008
2045.174,0.28101299
2045.782,0.28112547
2046.391,0.28129835
2047.0,0.28164506
2047.609,0.28209147
2048.218,0.28250919
2048.828,0.28289888
2049.438,0.28330645
2050.049,0.28369362
2050.66,0.28403446
2051.271,0.28439987
2051.883,0.28481615
2052.495,0.28522006
2053.107,0.28560555
2053.72,0.28602951
2054.333,0.28644799
2054.947,0.28678138
2055.56,0.28710698
2056.175,0.28755132
2056.789,0.28807803
2057.404,0.28858704
2058.019,0.2890778
2058.635,0.28953279
2059.251,0.28984182
2059.867,0.29001921
2060.484,0.29026409
2061.101,0.29066859
2061.718,0.29112093
2062.336,0.29156495
2062.954,0.2920685
2063.573,0.29261806
2064.192,0.29311897
2064.811,0.29357826
2065.431,0.29404568
2066.051,0.29447284
2066.671,0.29484034
2067.292,0.29527454
2067.913,0.29583161
2068.534,0.2963682
2069.156,0.29678459
2069.778,0.29717478
2070.401,0.29761579
2071.024,0.29804785
2071.647,0.29844254
2072.271,0.29885613
2072.895,0.29926878
2073.519,0.29960766
2074.144,0.29991614
2074.769,0.30029612
2075.395,0.30072231
2076.02,0.30110296
2076.647,0.30144438
2077.273,0.30180156
2077.9,0.30217161
2078.528,0.30257658
2079.155,0.30310291
2079.784,0.30375324
2080.412,0.30438447
2081.041,0.30489191
2081.67,0.30531673
2082.3,0.30572741
2082.93,0.3061314
2083.56,0.30654429
2084.191,0.30699569
2084.822,0.30745527
2085.454,0.30784938
2086.085,0.30817026
2086.718,0.30848682
2087.35,0.30887873
2087.983,0.30939454
2088.617,0.31002823
2089.251,0.31070133
2089.885,0.31131552
2090.519,0.31182713
2091.154,0.3122621
2091.789,0.31267027
2092.425,0.31308755
2093.061,0.31350443
2093.697,0.31388055
2094.334,0.31422843
2094.971,0.31463434
2095.609,0.31512902
2096.247,0.31563179
2096.885,0.31608604
2097.524,0.31653308
2098.163,0.31699028
2098.803,0.31741966
2099.443,0.31785911
2100.083,0.31839094
2100.723,0.31896105
2101.364,0.3194426
2102.006,0.31985234
2102.648,0.32029056
2103.29,0.3207387
2103.932,0.32114502
2104.575,0.32157642
2105.219,0.32208338
2105.862,0.32258102
2106.506,0.32304368
2107.151,0.32357914
2107.796,0.32417354
2108.441,0.32464131
2109.087,0.32493938
2109.733,0.32523802
2110.379,0.32562673
2111.026,0.32603436
2111.673,0.32645804
2112.321,0.32696389
2112.969,0.32750469
2113.617,0.32799078
2114.266,0.32845774
2114.915,0.32895354
2115.565,0.32941381
2116.215,0.32980035
2116.865,0.33019936
2117.516,0.33066955
2118.167,0.33118881
2118.819,0.33177788
2119.471,0.33247579
2120.123,0.33319445
2120.776,0.33378578
2121.429,0.33423907
2122.082,0.33465975
2122.736,0.33511567
2123.391,0.33560256
2124.045,0.33608191
2124.7,0.33651451
2125.356,0.33692782
2126.012,0.33742413
2126.668,0.33803958
2127.325,0.33867277
2127.982,0.33923037
2128.64,0.33972791
2129.297,0.34021218
2129.956,0.34071193
2130.614,0.34127893
2131.274,0.34193452
2131.933,0.34259131
2132.593,0.34315476
2133.253,0.34363903
2133.914,0.3440824
2134.575,0.34447201
2135.237,0.34482723
2135.899,0.34521487
2136.561,0.3456298
2137.224,0.34602358
2137.887,0.34646505
2138.55,0.34707722
2139.214,0.34782571
2139.879,0.34854185
2140.544,0.34914364
2141.209,0.34969211
2141.874,0.35026199
2142.54,0.35086489
2143.207,0.35147437
2143.873,0.35204047
2144.541,0.35252192
2145.208,0.3529297
2145.876,0.35331073
2146.545,0.35369212
2147.214,0.35409834
2147.883,0.354572
2148.553,0.35512802
2149.223,0.35571537
2149.893,0.35625814
2150.564,0.35672236
2151.235,0.35715511
2151.907,0.35766522
2152.579,0.35831225
2153.252,0.35901008
2153.925,0.35960818
2154.598,0.36006269
2155.272,0.36046631
2155.946,0.36093145
2156.621,0.36150587
2157.296,0.36214936
2157.972,0.36273435
2158.647,0.36315211
2159.324,0.36348601
2160.001,0.36397363
2160.678,0.36472245
2161.355,0.365575
2162.033,0.36630846
2162.712,0.36684967
2163.39,0.36725399
2164.07,0.36761139
2164.749,0.36802971
2165.429,0.36859197
2166.11,0.36927669
2166.791,0.36999631
2167.472,0.37071406
2168.154,0.37143805
2168.836,0.37212777
2169.519,0.37273281
2170.202,0.37330701
2170.885,0.37394206
2171.569,0.37459992
2172.254,0.37515117
2172.938,0.37556918
2173.624,0.37594779
2174.309,0.37635377
2174.995,0.37679857
2175.682,0.37732107
2176.368,0.37796493
2177.056,0.37870146
2177.743,0.37946595
2178.432,0.38021809
2179.12,0.38087126
2179.809,0.38128783
2180.499,0.38147024
2181.189,0.38163536
2181.879,0.38200623
2182.57,0.38262838
2183.261,0.38342555
2183.952,0.38428744
2184.644,0.38506373
2185.337,0.3856361
2186.03,0.3860408
2186.723,0.38641558
2187.417,0.38684706
2188.111,0.3873594
2188.806,0.3879692
2189.501,0.3886343
2190.196,0.38923312
2190.892,0.38969787
2191.589,0.39009448
2192.285,0.39051359
2192.983,0.39098924
2193.68,0.39153758
2194.379,0.39216006
2195.077,0.39280195
2195.776,0.39341017
2196.476,0.39401388
2197.175,0.3946715
2197.876,0.39537853
2198.577,0.39608097
2199.278,0.39672622
2199.979,0.39727133
2200.682,0.39771927
2201.384,0.39815409
2202.087,0.3986687
2202.79,0.39925129
2203.494,0.39981351
2204.199,0.40032188
2204.903,0.40084141
2205.609,0.40143919
2206.314,0.40211859
2207.02,0.40284951
2207.727,0.40359355
2208.434,0.40427323
2209.141,0.40479224
2209.849,0.40515212
2210.557,0.40549057
2211.266,0.40594723
2211.975,0.40654753
2212.685,0.40724539
2213.395,0.40797679
2214.106,0.40863366
2214.817,0.40912824
2215.528,0.40952036
2216.24,0.40994839
2216.952,0.41044598
2217.665,0.41098527
2218.379,0.41160479
2219.092,0.41229062
2219.806,0.4128684
2220.521,0.41324252
2221.236,0.41356681
2221.952,0.41397603
2222.668,0.41439208
2223.384,0.41476495
2224.101,0.41519364
2224.818,0.41568271
2225.536,0.41611536
2226.254,0.41651773
2226.973,0.41700026
2227.692,0.41749587
2228.412,0.41790521
2229.132,0.41834053
2229.853,0.41888481
2230.574,0.41935843
2231.295,0.41963536
2232.017,0.41987168
2232.74,0.42018632
2233.462,0.42051073
2234.186,0.42086847
2234.91,0.42136827
2235.634,0.42188886
2236.359,0.42222904
2237.084,0.4224823
2237.809,0.42284412
2238.536,0.42326099
2239.262,0.42364458
2239.989,0.42408848
2240.717,0.42457228
2241.445,0.42486925
2242.173,0.42497241
2242.902,0.42515246
2243.631,0.42550722
2244.361,0.4259235
2245.092,0.42642651
2245.822,0.42707178
2246.554,0.42767155
2247.285,0.42808133
2248.017,0.42849804
2248.75,0.42908446
2249.483,0.42967634
2250.217,0.430147
2250.951,0.43061928
2251.686,0.43113081
2252.421,0.43155474
2253.156,0.43194119
2253.892,0.43246365
2254.628,0.43306653
2255.365,0.43360885
2256.103,0.43418835
2256.841,0.4349336
2257.579,0.43571558
2258.318,0.43639494
2259.057,0.43705408
2259.797,0.43772442
2260.537,0.43823931
2261.278,0.43854961
2262.019,0.43884438
2262.761,0.43924993
2263.503,0.43971755
2264.246,0.44020549
2264.989,0.44069828
2265.732,0.44110542
2266.477,0.4413865
2267.221,0.44167043
2267.966,0.44206702
2268.712,0.44251089
2269.458,0.44289341
2270.204,0.44319854
2270.951,0.44345199
2271.699,0.44369829
2272.447,0.44403897
2273.195,0.44453497
2273.944,0.44510434
2274.694,0.44562768
2275.444,0.44608789
2276.194,0.44652048
2276.945,0.44692006
2277.696,0.44726669
2278.448,0.44757326
2279.201,0.4478632
2279.954,0.44816493
2280.707,0.4485204
2281.461,0.4489178
2282.215,0.4492752
2282.97,0.44956324
2283.725,0.44986591
2284.481,0.45023453
2285.237,0.45059051
2285.994,0.45087509
2286.752,0.45116915
2287.509,0.4515575
2288.268,0.45199273
2289.026,0.45238749
2289.786,0.45273046
2290.545,0.45303732
2291.306,0.45330224
2292.067,0.45356682
2292.828,0.45389967
2293.59,0.45426664
2294.352,0.45456974
2295.115,0.45482351
2295.878,0.45511746
2296.642,0.45542309
2297.406,0.4556438
2298.171,0.45581104
2298.936,0.45603703
2299.702,0.45633495
2300.468,0.4566712
2301.235,0.45708467
2302.002,0.4575707
2302.77,0.45798592
2303.539,0.4582488
2304.307,0.45848674
2305.077,0.45883636
2305.847,0.45926119
2306.617,0.45967326
2307.388,0.46006231
2308.159,0.46041357
2308.931,0.46067125
2309.703,0.46084373
2310.476,0.46101751
2311.25,0.46123701
2312.024,0.46148354
2312.798,0.46175718
2313.573,0.46206734
2314.348,0.46238602
2315.124,0.46267518
2315.901,0.46295197
2316.678,0.46327459
2317.455,0.46366587
2318.234,0.46407321
2319.012,0.46443412
2319.791,0.46476161
2320.571,0.46511031
2321.351,0.46545403
2322.131,0.46571281
2322.913,0.46590485
2323.694,0.46614043
2324.476,0.46646695
2325.259,0.46685913
2326.042,0.46732371
2326.826,0.46784629
2327.61,0.46830807
2328.395,0.46863621
2329.18,0.46894032
2329.966,0.46933314
2330.753,0.46976586
2331.54,0.47018428
2332.327,0.47065998
2333.115,0.47123387
2333.903,0.47182368
2334.692,0.47237203
2335.482,0.47288874
2336.272,0.47332032
2337.062,0.47359855
2337.854,0.47381306
2338.645,0.47414406
2339.437,0.47463132
2340.23,0.47515868
2341.023,0.4756291
2341.817,0.47602622
2342.611,0.47637406
2343.406,0.47674326
2344.201,0.47722499
2344.997,0.47782284
2345.794,0.47841278
2346.591,0.47886037
2347.388,0.47917174
2348.186,0.47950212
2348.985,0.47998553
2349.784,0.48056729
2350.583,0.48108197
2351.384,0.48146195
2352.184,0.48177043
2352.986,0.48207274
2353.787,0.4824132
2354.59,0.48283189
2355.393,0.48327255
2356.196,0.48359233
2357.0,0.48377904
2357.804,0.48399868
2358.609,0.48432354
2359.415,0.48464451
2360.221,0.48492605
2361.028,0.48526375
2361.835,0.48564202
2362.643,0.4859316
2363.451,0.48614271
2364.26,0.48639386
2365.069,0.48668508
2365.879,0.48694429
2366.69,0.48720569
2367.501,0.48750213
2368.312,0.48773912
2369.125,0.48785476
2369.937,0.48792762
2370.751,0.488013
2371.564,0.48808381
2372.379,0.48817909
2373.194,0.48838282
2374.009,0.48864948
2374.825,0.48886004
2375.642,0.48901767
2376.459,0.48920467
2377.276,0.48943257
2378.095,0.4896585
2378.913,0.48985473
2379.733,0.48998523
2380.553,0.4900284
2381.373,0.49006324
2382.194,0.49022321
2383.016,0.49057008
2383.838,0.49106795
2384.661,0.49160844
2385.484,0.49203025
2386.308,0.49223837
2387.132,0.49232107
2387.957,0.4924439
2388.783,0.49265795
2389.609,0.49291142
2390.435,0.49315859
2391.263,0.49336144
2392.09,0.49349961
2392.919,0.49364605
2393.748,0.49390835
2394.577,0.49426976
2395.407,0.49460764
2396.238,0.4948514
2397.069,0.49501456
2397.901,0.49512019
2398.733,0.49523385
2399.566,0.49547576
2400.399,0.49589159
2401.233,0.49637658
2402.068,0.4968035
2402.903,0.4971204
2403.739,0.49731829
2404.575,0.4974202
2405.412,0.49752216
2406.25,0.49774147
2407.088,0.49811829
2407.926,0.49861142
2408.766,0.49913152
2409.606,0.49956315
2410.446,0.49984474
2411.287,0.50004032
2412.128,0.50025223
2412.971,0.50048809
2413.813,0.50070211
2414.657,0.50091826
2415.5,0.50120369
2416.345,0.50157323
2417.19,0.50199952
2418.036,0.50243529
2418.882,0.50276876
2419.729,0.50287727
2420.576,0.50278556
2421.424,0.50267222
2422.272,0.50267764
2423.122,0.50281067
2423.971,0.50304169
2424.822,0.50333285
2425.673,0.50359012
2426.524,0.50375805
2427.376,0.50392662
2428.229,0.50419194
2429.082,0.50447379
2429.936,0.50463575
2430.791,0.50470073
2431.646,0.50477106
2432.501,0.50486097
2433.358,0.50497529
2434.214,0.50517981
2435.072,0.50543116
2435.93,0.50554614
2436.789,0.50549055
2437.648,0.50546152
2438.508,0.50557026
2439.368,0.50572025
2440.229,0.5058515
2441.091,0.50602506
2441.953,0.50623978
2442.816,0.50645056
2443.679,0.50670744
2444.543,0.50701929
2445.408,0.50723684
2446.273,0.50730791
2447.139,0.50742479
2448.006,0.5077121
2448.873,0.50803719
2449.74,0.50825713
2450.609,0.50835655
2451.478,0.50830884
2452.347,0.50812649
2453.217,0.50798873
2454.088,0.50803597
2454.959,0.50816784
2455.831,0.50829134
2456.704,0.50847116
2457.577,0.50867273
2458.451,0.50872405
2459.325,0.50865145
2460.2,0.50863795
2461.076,0.50867704
2461.952,0.50869401
2462.829,0.5088189
2463.707,0.50910836
2464.585,0.5093012
2465.464,0.50925107
2466.343,0.50917887
2467.223,0.50921877
2468.104,0.50925203
2468.985,0.50934144
2469.867,0.50967185
2470.749,0.51004875
2471.632,0.51015394
2472.516,0.51015884
2473.4,0.51036229
2474.285,0.51056559
2475.171,0.51050294
2476.057,0.51040814
2476.944,0.51051523
2477.832,0.51060384
2478.72,0.51054421
2479.608,0.51060674
2480.498,0.51086049
2481.388,0.51100794
2482.278,0.51101973
2483.17,0.51114582
2484.062,0.51128868
2484.954,0.51118182
2485.847,0.51102688
2486.741,0.51118228
2487.636,0.51152149
2488.531,0.51174802
2489.427,0.51192675
2490.323,0.51213439
2491.22,0.5121156
2492.118,0.51178828
2493.016,0.51152999
2493.915,0.51160104
2494.814,0.51181916
2495.715,0.51199655
2496.615,0.51216286
2497.517,0.5122791
2498.419,0.51224953
2499.322,0.51219392
2500.225,0.51227463
2501.129,0.51239346
2502.034,0.5124054
2502.939,0.51240014
2503.845,0.51246823
2504.752,0.51248026
2505.659,0.51235374
2506.567,0.512237
2507.476,0.51224396
2508.385,0.51230664
2509.295,0.51237555
2510.206,0.51247583
2511.117,0.51255683
2512.029,0.51256711
2512.942,0.51259949
2513.855,0.51271837
2514.769,0.51280432
2515.683,0.51280699
2516.598,0.51287785
2517.514,0.51304799
2518.431,0.51312211
2519.348,0.51308043
2520.266,0.5131485
2521.184,0.51334702
2522.103,0.51343288
2523.023,0.51335606
2523.944,0.51326537
2524.865,0.51310059
2525.787,0.51275527
2526.709,0.51250265
2527.632,0.51263349
2528.556,0.5129341
2529.48,0.51309391
2530.406,0.51324467
2531.331,0.51353101
2532.258,0.51370042
2533.185,0.51366035
2534.113,0.51376241
2535.041,0.51403443
2535.971,0.5139837
2536.9,0.5135387
2537.831,0.5132623
2538.762,0.5133596
2539.694,0.51347539
2540.627,0.51350684
2541.56,0.51369815
2542.494,0.51394232
2543.428,0.51390801
2544.364,0.51379137
2545.3,0.51397055
2546.236,0.51423544
2547.174,0.51417905
2548.112,0.51400378
2549.05,0.51415627
2549.99,0.51452153
2550.93,0.51467678
2551.87,0.5145933
2552.812,0.51446649
2553.754,0.51418112
2554.697,0.51357933
2555.64,0.51297143
2556.585,0.51279992
2557.529,0.51306104
2558.475,0.51348874
2559.421,0.51417851
2560.368,0.51535225
2561.316,0.51646802
2562.264,0.51653147
2563.213,0.51563531
2564.163,0.51474395
2565.113,0.5141559
2566.065,0.51368276
2567.016,0.51364577
2567.969,0.51426372
2568.922,0.51474406
2569.876,0.51438887
2570.831,0.51400734
2571.786,0.51439939
2572.742,0.51482716
2573.699,0.51452502
2574.656,0.51425226
2575.615,0.5144527
2576.573,0.51420591
2577.533,0.51335032
2578.493,0.51316339
2579.454,0.51388705
2580.416,0.51436631
2581.378,0.51444311
2582.342,0.5151052
2583.305,0.51592877
2584.27,0.51556833
2585.235,0.51478006
2586.201,0.51496705
2587.168,0.51537764
2588.135,0.51465597
2589.103,0.51367964
2590.072,0.51368779
2591.042,0.51435607
2592.012,0.51540978
2592.983,0.51773954
2593.955,0.52068155
2594.927,0.52078085
2595.9,0.51754323
2596.874,0.51464316
2597.849,0.51338744
2598.824,0.51274753
2599.8,0.51249264
2600.777,0.51309435
2601.755,0.51410808
2602.733,0.51469385
2603.712,0.51515497
2604.692,0.51580617
2605.672,0.51574124
2606.653,0.51459826
2607.635,0.51349429
2608.618,0.51297255
2609.601,0.5124997
2610.585,0.51197959
2611.57,0.51187874
2612.556,0.51219075
2613.542,0.51263954
2614.529,0.51336448
2615.517,0.5143496
2616.505,0.51499012
2617.495,0.51502751
2618.485,0.51483544
2619.475,0.51434726
2620.467,0.51318692
2621.459,0.51176984
2622.452,0.51083063
2623.446,0.51051706
2624.44,0.51072172
2625.435,0.51143874
2626.431,0.5123428
2627.428,0.51294807
2628.426,0.51341819
2629.424,0.51405507
2630.423,0.51431079
2631.423,0.51358167
2632.423,0.51241229
2633.424,0.51150186
2634.426,0.51074166
2635.429,0.50994052
2636.432,0.50937885
2637.437,0.50916345
2638.442,0.50902788
2639.447,0.50890428
2640.454,0.50895175
2641.461,0.50909461
2642.469,0.50918077
2643.478,0.50934077
2644.488,0.50960374
2645.498,0.50962023
2646.509,0.50919661
2647.521,0.50865489
2648.534,0.50839667
2649.547,0.50857471
2650.561,0.50912106
2651.576,0.50970224
2652.592,0.50991443
2653.609,0.50971148
2654.626,0.50927857
2655.644,0.5086699
2656.663,0.50808834
2657.682,0.50794297
2658.703,0.50816565
2659.724,0.50814713
2660.746,0.50784066
2661.768,0.50799363
2662.792,0.50892898
2663.816,0.51022377
2664.841,0.51149255
2665.867,0.51240422
2666.894,0.5124698
2667.921,0.51198781
2668.949,0.51195969
2669.978,0.51205131
2671.008,0.51056867
2672.038,0.50760942
2673.07,0.50541699
2674.102,0.50504375
2675.135,0.5056717
2676.168,0.50621573
2677.203,0.50598661
2678.238,0.50419592
2679.274,0.50079656
2680.311,0.49721602
2681.349,0.49455048
2682.387,0.49227378
2683.426,0.48935296
2684.467,0.48560529
2685.507,0.48111477
2686.549,0.47540571
2687.591,0.46835674
2688.635,0.46089711
2689.679,0.45402442
2690.724,0.44814892
2691.769,0.44347914
2692.816,0.43998902
2693.863,0.43685752
2694.911,0.43304222
2695.96,0.42874734
2697.01,0.4250487
2698.06,0.42242146
2699.112,0.42065446
2700.164,0.41929075
2701.217,0.41766269
2702.27,0.41523056
2703.325,0.41214708
2704.38,0.40894312
2705.437,0.40593304
2706.494,0.40343307
2707.552,0.4019148
2708.61,0.40118593
2709.67,0.39963927
2710.73,0.39532396
2711.791,0.38809913
2712.853,0.37965074
2713.916,0.3715253
2714.98,0.36456305
2716.044,0.35931238
2717.109,0.3561052
2718.175,0.35494957
2719.242,0.35533654
2720.31,0.35590169
2721.379,0.35517263
2722.448,0.35319753
2723.518,0.35103685
2724.589,0.34877646
2725.661,0.34545641
2726.734,0.34087055
2727.808,0.33605743
2728.882,0.33189087
2729.958,0.32853382
2731.034,0.32610874
2732.111,0.32489618
2733.188,0.32461631
2734.267,0.32430159
2735.347,0.32345076
2736.427,0.32274133
2737.508,0.32291681
2738.59,0.32375652
2739.673,0.32433457
2740.757,0.32372904
2741.841,0.32162481
2742.927,0.3187678
2744.013,0.31649483
2745.1,0.31557441
2746.188,0.31560194
2747.277,0.31567295
2748.367,0.3155421
2749.457,0.31554426
2750.549,0.31566405
2751.641,0.31568453
2752.734,0.31589474
2753.828,0.31655375
2754.923,0.31695592
2756.019,0.31620983
2757.115,0.31487908
2758.213,0.31395239
2759.311,0.31341899
2760.41,0.31309102
2761.51,0.31322792
2762.611,0.31372929
2763.713,0.31383939
2764.816,0.31337439
2765.919,0.31308728
2767.024,0.3133241
2768.129,0.3137642
2769.235,0.31432925
2770.342,0.31518891
2771.45,0.3159801
2772.559,0.31623943
2773.669,0.31630108
2774.779,0.316693
2775.891,0.31726631
2777.003,0.31761039
2778.116,0.31773731
2779.23,0.31779935
2780.345,0.31768321
2781.461,0.31738522
2782.578,0.31726292
2783.696,0.31748943
2784.814,0.31781331
2785.934,0.3179498
2787.054,0.31781308
2788.175,0.31739138
2789.297,0.31676929
2790.42,0.31614854
2791.544,0.31561334
2792.669,0.3150512
2793.795,0.31439751
2794.922,0.31373371
2796.049,0.31313352
2797.178,0.31257338
2798.307,0.31199154
2799.437,0.31130198
2800.568,0.31043181
2801.7,0.30938719
2802.833,0.30817146
2803.967,0.30674361
2805.102,0.30525395
2806.238,0.30406089
2807.374,0.30331725
2808.512,0.30287019
2809.65,0.3026152
2810.789,0.30265245
2811.93,0.30299708
2813.071,0.30345226
2814.213,0.30390909
2815.356,0.30448096
2816.5,0.30521876
2817.645,0.30596819
2818.791,0.30658019
2819.937,0.30701113
2821.085,0.30722583
2822.233,0.30723793
2823.383,0.30722254
2824.533,0.30736633
2825.685,0.30763068
2826.837,0.30776892
2827.99,0.30759731
2829.144,0.30717919
2830.299,0.30668812
2831.455,0.30615982
2832.612,0.30551676
2833.77,0.30476427
2834.929,0.30399083
2836.089,0.30321831
2837.25,0.30246519
2838.411,0.3018675
2839.574,0.30149428
2840.737,0.30119334
2841.902,0.30088274
2843.067,0.30072587
2844.234,0.30076463
2845.401,0.3007303
2846.569,0.30050053
2847.739,0.30035607
2848.909,0.30050207
2850.08,0.30078092
2851.252,0.30107956
2852.425,0.30148148
2853.599,0.30183324
2854.774,0.30178741
2855.95,0.30142858
2857.127,0.30123605
2858.305,0.30135166
2859.484,0.30152682
2860.664,0.30167617
2861.844,0.30186594
2863.026,0.30193067
2864.209,0.30168365
2865.392,0.30130956
2866.577,0.30106669
2867.763,0.30087773
2868.949,0.3005997
2870.137,0.30034813
2871.325,0.3002076
2872.515,0.30000095
2873.705,0.2996294
2874.897,0.29928158
2876.089,0.29908321
2877.283,0.29890932
2878.477,0.29866479
2879.673,0.29843239
2880.869,0.29824957
2882.066,0.29803159
2883.265,0.29775352
2884.464,0.29751201
2885.664,0.29738558
2886.866,0.29737528
2888.068,0.29744919
2889.271,0.29753245
2890.476,0.29748265
2891.681,0.2971813
2892.887,0.29666717
2894.095,0.2961325
2895.303,0.29575023
2896.512,0.29550234
2897.723,0.29521347
2898.934,0.29478006
2900.146,0.2942999
2901.36,0.29393002
2902.574,0.29370823
2903.789,0.29359025
2905.006,0.29353517
2906.223,0.29347485
2907.441,0.29331628
2908.661,0.29305885
2909.881,0.29278209
2911.103,0.29248378
2912.325,0.29211669
2913.549,0.29180652
2914.773,0.29176639
2915.999,0.29193759
2917.225,0.29198646
2918.453,0.29174422
2919.681,0.29136257
2920.911,0.29099799
2922.142,0.29064501
2923.373,0.29031282
2924.606,0.29004146
2925.84,0.28972766
2927.075,0.28925284
2928.31,0.28876801
2929.547,0.28851595
2930.785,0.2884777
2932.024,0.28850487
2933.264,0.2886387
2934.505,0.28893333
2935.747,0.2891816
2936.99,0.2891949
2938.234,0.28912836
2939.479,0.28917591
2940.726,0.28924402
2941.973,0.28925051
2943.221,0.28940511
2944.471,0.28988101
2945.721,0.29052
2946.973,0.29107621
2948.225,0.29142031
2949.479,0.29144389
2950.733,0.29116588
2951.989,0.29094113
2953.246,0.29112745
2954.504,0.29158253
2955.763,0.29187189
2957.023,0.29186154
2958.284,0.29172605
2959.546,0.29158138
2960.809,0.29147924
2962.073,0.29155091
2963.339,0.29183534
2964.605,0.29216513
2965.873,0.2924095
2967.141,0.29258505
2968.411,0.29266622
2969.681,0.29261668
2970.953,0.29262793
2972.226,0.29297879
2973.5,0.29364581
2974.775,0.29432453
2976.051,0.29475777
2977.328,0.29482284
2978.607,0.29450434
2979.886,0.2940191
2981.167,0.29374279
2982.448,0.29380552
2983.731,0.29397673
2985.015,0.29406575
2986.3,0.29415111
2987.586,0.29433448
2988.873,0.2945838
2990.161,0.29486295
2991.45,0.29511933
2992.74,0.29517328
2994.032,0.29493921
2995.324,0.29467846
2996.618,0.29471409
2997.913,0.29501423
2999.209,0.29535169
3000.506,0.29567252
3001.804,0.29598595
3003.103,0.29612457
3004.404,0.29597214
3005.705,0.29570752
3007.008,0.29553487
3008.312,0.29542616
3009.616,0.29537604
3010.922,0.29555828
3012.23,0.29597795
3013.538,0.29632229
3014.847,0.29638996
3016.158,0.29631338
3017.469,0.29621556
3018.782,0.29605981
3020.096,0.29594009
3021.411,0.29606024
3022.727,0.29634788
3024.044,0.29653941
3025.363,0.29665892
3026.683,0.29697832
3028.003,0.29755435
3029.325,0.29822498
3030.648,0.29891344
3031.972,0.29951813
3033.298,0.29972645
3034.624,0.29937926
3035.952,0.29880962
3037.281,0.2984519
3038.611,0.29836208
3039.942,0.29840975
3041.274,0.29860469
3042.607,0.29893197
3043.942,0.29918358
3045.278,0.29920704
3046.615,0.29907092
3047.953,0.2988657
3049.292,0.29860795
3050.632,0.29839255
3051.974,0.29836374
3053.317,0.29849858
3054.661,0.29863786
3056.006,0.29872263
3057.352,0.29881814
3058.7,0.29896015
3060.048,0.29914048
3061.398,0.29939013
3062.749,0.29974198
3064.101,0.3001302
3065.455,0.30039514
3066.809,0.30040448
3068.165,0.30017579
3069.522,0.29987031
3070.88,0.29964077
3072.239,0.29951995
3073.6,0.2994952
3074.962,0.29958936
3076.325,0.29978586
3077.689,0.29998316
3079.054,0.30010591
3080.421,0.30016247
3081.788,0.30016234
3083.157,0.30013061
3084.527,0.30019171
3085.899,0.30043453
3087.271,0.30071209
3088.645,0.30079589
3090.02,0.30068535
3091.396,0.30054714
3092.774,0.30042307
3094.153,0.30025197
3095.532,0.30010143
3096.914,0.30012602
3098.296,0.30034869
3099.679,0.30066361
3101.064,0.3009547
3102.45,0.301095
3103.837,0.30098619
3105.226,0.30072869
3106.616,0.30058422
3108.007,0.3006621
3109.399,0.30081203
3110.792,0.30090605
3112.187,0.30102113
3113.583,0.30125068
3114.98,0.3015219
3116.378,0.30170954
3117.778,0.30179502
3119.179,0.30183676
3120.581,0.30188862
3121.985,0.30200167
3123.389,0.30221018
3124.795,0.30247286
3126.202,0.30270462
3127.611,0.30289209
3129.02,0.3031067
3130.431,0.30337506
3131.844,0.30361538
3133.257,0.30375134
3134.672,0.30382884
3136.088,0.30394828
3137.505,0.30414099
3138.924,0.30437918
3140.344,0.30465268
3141.765,0.30494595
3143.187,0.30518875
3144.611,0.3053433
3146.036,0.30550752
3147.462,0.30581093
3148.89,0.30623607
3150.319,0.30666352
3151.749,0.307036
3153.18,0.30735444
3154.613,0.30759279
3156.047,0.30776681
3157.482,0.30799152
3158.919,0.30831901
3160.357,0.30862482
3161.796,0.30880208
3163.236,0.30894048
3164.678,0.30917175
3166.121,0.30947116
3167.566,0.30975541
3169.011,0.310019
3170.458,0.31025769
3171.907,0.31042648
3173.356,0.31057987
3174.807,0.31088254
3176.26,0.31140673
3177.713,0.3120573
3179.168,0.31270242
3180.624,0.31320274
3182.082,0.31336752
3183.541,0.31311837
3185.001,0.31268621
3186.463,0.31243645
3187.926,0.31251868
3189.39,0.31285118
3190.856,0.31334319
3192.323,0.31392533
3193.791,0.31443403
3195.26,0.31468063
3196.731,0.31463212
3198.204,0.31442421
3199.677,0.31423585
3201.152,0.3142015
3202.629,0.31435011
3204.106,0.31457662
3205.585,0.31474228
3207.066,0.3148447
3208.548,0.31504389
3210.031,0.3155002
3211.515,0.31622658
3213.001,0.31709164
3214.488,0.3178966
3215.977,0.31842584
3217.467,0.3184995
3218.958,0.31808598
3220.451,0.31739916
3221.945,0.3168088
3223.441,0.31657427
3224.938,0.31664795
3226.436,0.31675994
3227.936,0.3166818
3229.437,0.31641592
3230.939,0.31616504
3232.443,0.31613959
3233.948,0.31636334
3235.455,0.31666225
3236.963,0.31685101
3238.472,0.316913
3239.983,0.31698233
3241.495,0.31718855
3243.008,0.31753796
3244.523,0.31791403
3246.04,0.31818857
3247.558,0.31836167
3249.077,0.3185687
3250.598,0.31892836
3252.12,0.31942657
3253.643,0.319975
3255.168,0.32048192
3256.694,0.3208234
3258.222,0.32084693
3259.751,0.32049329
3261.282,0.31987611
3262.814,0.31922914
3264.347,0.31880613
3265.882,0.31876674
3267.418,0.31905302
3268.956,0.31940957
3270.495,0.31958957
3272.036,0.31952224
3273.578,0.31927835
3275.122,0.31899359
3276.667,0.31884251
3278.213,0.31893984
3279.761,0.31921239
3281.31,0.31948848
3282.861,0.31971119
3284.413,0.3199374
3285.967,0.32015982
3287.522,0.32029885
3289.079,0.32035579
3290.637,0.32043888
3292.196,0.32065304
3293.757,0.3210244
3295.32,0.32146201
3296.884,0.32173889
3298.449,0.32164313
3300.016,0.32123807
3301.585,0.32085267
3303.155,0.3207367
3304.726,0.32083374
3306.299,0.3209324
3307.873,0.32090473
3309.449,0.3207711
3311.026,0.32065101
3312.605,0.32067567
3314.185,0.32086384
3315.767,0.32108425
3317.351,0.32120228
3318.936,0.32123333
3320.522,0.32130433
3322.11,0.32152827
3323.699,0.32196085
3325.29,0.32258796
3326.882,0.32326916
3328.476,0.32375046
3330.072,0.32380453
3331.669,0.32338392
3333.267,0.32265408
3334.867,0.3219056
3336.469,0.32138422
3338.072,0.32114917
3339.676,0.32109832
3341.282,0.32113076
3342.89,0.32122155
3344.499,0.32135786
3346.11,0.32151059
3347.722,0.32168163
3349.336,0.32187126
3350.952,0.32198592
3352.569,0.32188341
3354.187,0.3215239
3355.807,0.32100801
3357.429,0.32050452
3359.052,0.32019798
3360.677,0.32021801
3362.303,0.32050675
3363.931,0.32082159
3365.56,0.32094954
3367.191,0.32085903
3368.824,0.32061886
3370.458,0.3202893
3372.093,0.31992666
3373.731,0.31956939
3375.37,0.31919393
3377.01,0.31879396
3378.652,0.31847996
3380.296,0.31837063
3381.941,0.3184291
3383.588,0.31853037
3385.236,0.31861632
3386.886,0.31867377
3388.538,0.31865755
3390.191,0.31857664
3391.846,0.3185576
3393.502,0.318699
3395.16,0.31893604
3396.82,0.31914198
3398.481,0.31928675
3400.144,0.31944099
3401.809,0.31968058
3403.475,0.32001268
3405.143,0.3203067
3406.812,0.32031964
3408.483,0.3198956
3410.156,0.31917019
3411.83,0.31847684
3413.506,0.31805986
3415.183,0.31793608
3416.862,0.31801568
3418.543,0.3182372
3420.226,0.31856769
3421.91,0.31893977
3423.596,0.31924818
3425.283,0.31940154
3426.972,0.31939336
3428.663,0.31932922
3430.355,0.31936303
3432.049,0.31957192
3433.745,0.31993548
3435.442,0.32043668
3437.141,0.32111572
3438.842,0.32196104
3440.545,0.32278966
3442.249,0.32331159
3443.954,0.32332883
3445.662,0.3228654
3447.371,0.32215751
3449.082,0.32152264
3450.794,0.32116539
3452.509,0.32105918
3454.224,0.321044
3455.942,0.32102176
3457.661,0.32101473
3459.382,0.32107752
3461.105,0.32122292
3462.829,0.32139998
3464.556,0.32148762
3466.283,0.32137237
3468.013,0.32108008
3469.744,0.32075949
3471.477,0.32050699
3473.212,0.32031221
3474.948,0.32016958
3476.686,0.32010844
3478.426,0.32010513
3480.168,0.32009969
3481.911,0.32010458
3483.656,0.32020003
3485.403,0.32046527
3487.152,0.32096637
3488.902,0.321673
3490.654,0.32232136
3492.408,0.3225423
3494.164,0.32224133
3495.921,0.32169565
3497.68,0.321224
3499.441,0.32093772
3501.204,0.32082962
3502.968,0.32087596
3504.734,0.32100337
3506.502,0.32112738
3508.272,0.32124683
3510.043,0.32139043
3511.817,0.32153082
3513.592,0.32166213
3515.368,0.32185653
3517.147,0.32214681
3518.927,0.32247023
3520.71,0.32277863
3522.494,0.3230571
3524.28,0.32323377
3526.067,0.32325896
3527.857,0.32328972
3529.648,0.32358098
3531.441,0.32416005
3533.236,0.32474804
3535.032,0.32501957
3536.831,0.32484525
3538.631,0.32433661
3540.433,0.32375007
3542.237,0.32330869
3544.043,0.3230551
3545.851,0.32290997
3547.66,0.32283877
3549.471,0.3228689
3551.284,0.32297444
3553.099,0.32306773
3554.916,0.32309344
3556.735,0.323055
3558.555,0.32297632
3560.378,0.32290517
3562.202,0.3228995
3564.028,0.32296908
3565.856,0.32308659
3567.686,0.32325688
3569.518,0.32347545
3571.351,0.32363932
3573.187,0.32362737
3575.024,0.32345804
3576.863,0.32327366
3578.704,0.32319914
3580.547,0.32329448
3582.392,0.32355673
3584.239,0.32385817
3586.088,0.32399474
3587.938,0.32390927
3589.791,0.32377971
3591.645,0.32380143
3593.501,0.32398308
3595.359,0.32419438
3597.22,0.32427769
3599.082,0.32409619
3600.946,0.32365618
3602.811,0.32318179
3604.679,0.32290725
3606.549,0.32282602
3608.421,0.32281545
3610.294,0.32289798
3612.17,0.32315681
3614.047,0.32349889
3615.926,0.32373023
3617.808,0.32377943
3619.691,0.32368278
3621.576,0.32348696
3623.463,0.32329917
3625.353,0.32325425
3627.244,0.32332505
3629.137,0.32334321
3631.032,0.32326578
3632.929,0.32321019
3634.828,0.32323013
3636.729,0.32327774
3638.632,0.32335643
3640.537,0.32348813
3642.444,0.32360513
3644.353,0.32367728
3646.263,0.32382694
3648.176,0.32412436
3650.091,0.32442569
3652.008,0.32456176
3653.927,0.32452304
3655.848,0.32435655
3657.771,0.32409368
3659.696,0.32385057
3661.623,0.32378191
3663.552,0.32387478
3665.483,0.32397289
3667.416,0.32399212
3669.351,0.32396171
3671.288,0.32391001
3673.227,0.32388595
3675.168,0.32400228
3677.111,0.32429759
3679.057,0.324628
3681.004,0.32481693
3682.953,0.32481921
3684.905,0.32467951
3686.858,0.32444884
3688.814,0.32420961
3690.771,0.32405669
3692.731,0.32400767
3694.693,0.32401266
3696.656,0.32405366
3698.622,0.32414177
3700.59,0.32424083
3702.56,0.32429883
3704.532,0.32434184
3706.507,0.32443292
3708.483,0.32455525
3710.461,0.32463648
3712.442,0.32467168
3714.425,0.32472324
3716.409,0.32481825
3718.396,0.32493918
3720.385,0.32509402
3722.376,0.3252904
3724.37,0.32547683
3726.365,0.32561085
3728.362,0.32573658
3730.362,0.3258873
3732.364,0.32599936
3734.368,0.3260316
3736.374,0.32607903
3738.382,0.32624803
3740.392,0.32653235
3742.405,0.32688119
3744.419,0.32724828
3746.436,0.32752176
3748.455,0.32759856
3750.476,0.32755796
3752.499,0.32756701
3754.525,0.3276282
3756.553,0.32764242
3758.582,0.3276306
3760.614,0.32766948
3762.649,0.32771569
3764.685,0.32772006
3766.724,0.3277579
3768.764,0.32786694
3770.807,0.3279499
3772.853,0.32798175
3774.9,0.32806651
3776.95,0.32820626
3779.001,0.32828229
3781.056,0.32830317
3783.112,0.32837789
3785.17,0.32847596
3787.231,0.32849746
3789.294,0.32850066
3791.359,0.32858471
3793.427,0.32869921
3795.496,0.32879359
3797.568,0.32895976
3799.643,0.32922366
3801.719,0.32943645
3803.798,0.32951898
3805.879,0.32957331
3807.962,0.32966008
3810.048,0.32973496
3812.135,0.32982837
3814.225,0.33002053
3816.318,0.33025455
3818.412,0.33041499
3820.509,0.33052254
3822.609,0.33064778
3824.71,0.33074591
3826.814,0.33077078
3828.92,0.3308191
3831.029,0.33098816
3833.139,0.33122739
3835.252,0.33145409
3837.368,0.3316824
3839.486,0.33195405
3841.606,0.3322607
3843.728,0.33258843
3845.853,0.3329407
3847.98,0.33328804
3850.109,0.33357957
3852.241,0.33381599
3854.375,0.3340484
3856.512,0.33430816
3858.65,0.33458247
3860.792,0.33485436
3862.935,0.33512274
3865.081,0.33537338
3867.229,0.3355693
3869.38,0.33570596
3871.533,0.33584334
3873.689,0.33603774
3875.846,0.3362614
3878.007,0.33645708
3880.169,0.33663669
3882.334,0.3368475
3884.502,0.33707177
3886.672,0.33726629
3888.844,0.33746104
3891.019,0.33771863
3893.196,0.33802554
3895.375,0.33832432
3897.557,0.33860575
3899.742,0.33888287
3901.929,0.33911804
3904.118,0.33927793
3906.31,0.33940282
3908.504,0.33954028
3910.7,0.33967086
3912.9,0.33977512
3915.101,0.33989611
3917.305,0.34006743
3919.512,0.34025277
3921.721,0.34042431
3923.932,0.3406136
3926.146,0.34082873
3928.363,0.34101731
3930.581,0.34117666
3932.803,0.3413911
3935.027,0.3417014
3937.253,0.34204927
3939.482,0.3424021
3941.714,0.34279745
3943.948,0.34322039
3946.184,0.34358015
3948.423,0.34385381
3950.665,0.34411367
3952.909,0.34440058
3955.156,0.34471048
3957.405,0.34509963
3959.657,0.34563941
3961.911,0.3462764
3964.168,0.34688624
3966.427,0.34743701
3968.689,0.34797068
3970.954,0.34849161
3973.221,0.34897902
3975.491,0.34944628
3977.763,0.34989374
3980.038,0.35028092
3982.315,0.35059813
3984.595,0.35089012
3986.878,0.35119151
3989.163,0.3515119
3991.451,0.35186502
3993.742,0.35224819
3996.035,0.35262552
3998.33,0.35298507
4000.629,0.35335544
4002.93,0.35374286
4005.233,0.35412503
4007.54,0.35449723
4009.849,0.35485332
4012.16,0.35516852
4014.475,0.35547077
4016.791,0.35584224
4019.111,0.35629297
4021.433,0.35674984
4023.758,0.35718812
4026.086,0.35763719
4028.416,0.35806578
4030.749,0.35842773
4033.085,0.35878561
4035.423,0.35922218
4037.764,0.35968466
4040.108,0.36008682
4042.454,0.36047127
4044.804,0.36092421
4047.155,0.36143629
4049.51,0.36198038
4051.867,0.36258331
4054.228,0.36321907
4056.59,0.36377437
4058.956,0.36421953
4061.324,0.36467281
4063.695,0.36522317
4066.069,0.3658236
4068.446,0.36641552
4070.825,0.3670198
4073.207,0.36764811
4075.592,0.36824479
4077.98,0.36878872
4080.371,0.36935681
4082.764,0.37001732
4085.16,0.37073783
4087.559,0.37146311
4089.961,0.37219765
4092.365,0.37292768
4094.773,0.37357268
4097.183,0.37412605
4099.596,0.37472622
4102.012,0.37544678
4104.43,0.37617179
4106.852,0.37680638
4109.276,0.37743006
4111.703,0.3780988
4114.133,0.37873798
4116.566,0.37936021
4119.002,0.38012024
4121.441,0.38102108
4123.882,0.3818751
4126.327,0.38262842
4128.774,0.38339664
4131.224,0.38417116
4133.677,0.38485347
4136.133,0.38554208
4138.592,0.3864017
4141.054,0.38734439
4143.519,0.38819611
4145.987,0.38901879
4148.457,0.38993395
4150.931,0.39085971
4153.407,0.39170936
4155.887,0.39258062
4158.369,0.39352699
4160.854,0.39443774
4163.343,0.39528702
4165.834,0.39617405
4168.328,0.39706583
4170.826,0.39783543
4173.326,0.39854
4175.829,0.39934201
4178.335,0.40024867
4180.844,0.40119431
4183.356,0.402215
4185.872,0.40332544
4188.39,0.40445411
4190.911,0.4056671
4193.435,0.40723047
4195.963,0.40938003
4198.493,0.41224836
4201.026,0.4159708
4203.563,0.42058794
4206.102,0.4259155
4208.645,0.43176211
4211.19,0.43811157
4213.739,0.44484724
4216.291,0.45155812
4218.846,0.4578989
4221.404,0.46381964
4223.965,0.46925262
4226.529,0.47405857
4229.096,0.47838474
4231.666,0.4824033
4234.24,0.48576891
4236.816,0.4879993
4239.396,0.48916884
4241.979,0.48943003
4244.565,0.4882471
4247.154,0.48479442
4249.746,0.47901725
4252.341,0.47211292
4254.94,0.46622719
4257.542,0.46353553
4260.146,0.46520262
4262.754,0.47074232
4265.366,0.47807767
4267.98,0.48460132
4270.598,0.48878319
4273.219,0.49072823
4275.843,0.49136594
4278.47,0.491614
4281.1,0.49203333
4283.734,0.49278325
4286.371,0.49378411
4289.011,0.49485319
4291.655,0.49565492
4294.301,0.49586141
4296.951,0.49556601
4299.604,0.49529683
4302.261,0.49540236
4304.92,0.49563732
4307.583,0.49547988
4310.25,0.49469105
4312.919,0.49342172
4315.592,0.49199797
4318.268,0.49075805
4320.948,0.48991469
4323.631,0.48939803
4326.317,0.4889203
4329.006,0.48828153
4331.699,0.48751818
4334.395,0.48674032
4337.095,0.4860242
4339.797,0.48551077
4342.504,0.48539464
4345.213,0.48571912
4347.926,0.48635115
4350.642,0.48713791
4353.362,0.48794494
4356.085,0.48863189
4358.811,0.48920315
4361.541,0.48986795
4364.275,0.49078054
4367.011,0.49186628
4369.751,0.49302184
4372.495,0.49423139
4375.242,0.49543275
4377.992,0.49658579
4380.746,0.49787916
4383.504,0.49951363
4386.264,0.50133866
4389.029,0.50306099
4391.796,0.50466152
4394.567,0.50622369
4397.342,0.50765532
4400.12,0.50898484
4402.902,0.51052313
4405.687,0.51235673
4408.476,0.51414261
4411.268,0.51571881
4414.064,0.51731852
4416.863,0.51898872
4419.666,0.52048685
4422.472,0.52185767
4425.282,0.52336541
4428.096,0.5248851
4430.913,0.5261272
4433.734,0.52729349
4436.558,0.52872195
4439.386,0.530203
4442.217,0.53138708
4445.052,0.53245691
4447.891,0.53368863
4450.733,0.5349176
4453.579,0.53601163
4456.428,0.53723669
4459.281,0.53865974
4462.138,0.53989172
4464.998,0.54079848
4467.863,0.54175969
4470.73,0.54296091
4473.602,0.54414743
4476.477,0.54518282
4479.355,0.54620606
4482.238,0.54720625
4485.124,0.54804598
4488.014,0.5488092
4490.908,0.54967923
4493.805,0.55062186
4496.706,0.55153111
4499.611,0.55248444
4502.519,0.55358463
4505.431,0.55474088
4508.347,0.55576927
4511.267,0.55660228
4514.191,0.55733574
4517.118,0.55813052
4520.049,0.55902611
4522.984,0.55992378
4525.923,0.56081486
4528.865,0.56181671
4531.812,0.56286561
4534.762,0.56371476
4537.716,0.56438452
4540.674,0.56516444
4543.635,0.56609
4546.601,0.56694047
4549.57,0.56780507
4552.543,0.56897628
4555.521,0.57033276
4558.502,0.57151172
4561.487,0.57256752
4564.475,0.57369379
4567.468,0.57460002
4570.465,0.57501703
4573.465,0.57547445
4576.47,0.57652946
4579.478,0.57781083
4582.491,0.57880544
4585.507,0.57976011
4588.527,0.58093292
4591.551,0.58193498
4594.58,0.58262857
4597.612,0.58363331
4600.648,0.58518915
4603.688,0.58661531
4606.732,0.58749391
4609.781,0.58825212
4612.833,0.58908309
4615.889,0.5896125
4618.949,0.58995449
4622.014,0.59076769
4625.082,0.5919294
4628.155,0.5926399
4631.231,0.59295358
4634.312,0.59373651
4637.397,0.59499759
4640.485,0.59598284
4643.578,0.59671053
4646.675,0.5977255
4649.777,0.59879294
4652.882,0.59930583
4655.991,0.59963576
4659.105,0.60056059
4662.223,0.60181337
4665.345,0.6027498
4668.471,0.60373517
4671.601,0.60531729
4674.735,0.60700553
4677.874,0.60818621
4681.017,0.60916319
4684.164,0.61009972
4687.315,0.61037462
4690.471,0.61003462
4693.63,0.61030755
4696.794,0.61174066
4699.962,0.61344176
4703.135,0.61477204
4706.312,0.61613318
4709.493,0.61762474
4712.678,0.61867996
4715.868,0.61934763
4719.062,0.62032505
4722.26,0.6216369
4725.463,0.62274983
4728.669,0.62376129
4731.881,0.62509457
4735.096,0.62648159
4738.316,0.62743063
4741.541,0.62817981
4744.769,0.62919855
4748.002,0.63041329
4751.24,0.63161759
4754.482,0.63295229
4757.728,0.63444768
4760.979,0.63579046
4764.234,0.63687083
4767.494,0.63795797
4770.758,0.63917522
4774.026,0.64038077
4777.299,0.64152967
4780.577,0.64271321
4783.859,0.64392185
4787.145,0.64506711
4790.436,0.64609374
4793.732,0.64697752
4797.032,0.64776499
4800.336,0.64858746
4803.645,0.64949749
4806.959,0.65044265
4810.277,0.65151617
4813.6,0.65290043
4816.927,0.65441683
4820.259,0.65556581
4823.596,0.65614436
4826.937,0.65640741
4830.283,0.65663607
4833.633,0.65703754
4836.988,0.65787395
4840.348,0.65913958
4843.712,0.6603678
4847.081,0.66127684
4850.455,0.66219702
4853.833,0.66340402
4857.216,0.6645737
4860.604,0.66539331
4863.996,0.66612957
4867.393,0.6670608
4870.795,0.66790113
4874.202,0.66835221
4877.613,0.66871376
4881.03,0.66939766
4884.451,0.6703633
4887.876,0.67150144
4891.307,0.6729457
4894.742,0.67457365
4898.182,0.67584737
4901.627,0.67661328
4905.077,0.67742487
4908.532,0.67850734
4911.991,0.6792942
4915.456,0.67956247
4918.925,0.67998362
4922.399,0.68099212
4925.878,0.68222728
4929.362,0.68345826
4932.851,0.6848456
4936.345,0.68609186
4939.844,0.68667554
4943.347,0.68705816
4946.856,0.68822216
4950.37,0.69004855
4953.888,0.69151809
4957.412,0.69231015
4960.941,0.69287659
4964.474,0.69335335
4968.013,0.69370435
4971.556,0.69438562
4975.105,0.69564939
4978.659,0.69674796
4982.218,0.69703349
4985.782,0.6971362
4989.351,0.69785639
4992.925,0.69889191
4996.504,0.69972458
5000.088,0.70063207
5003.678,0.70188574
5007.272,0.70318269
5010.872,0.70451434
5014.477,0.70632703
5018.087,0.70830396
5021.703,0.70938584
5025.323,0.70937372
5028.949,0.70918748
5032.58,0.70937072
5036.216,0.70969129
5039.857,0.71013037
5043.504,0.71096115
5047.156,0.7119535
5050.813,0.71263392
5054.475,0.7131422
5058.143,0.71388495
5061.816,0.71470965
5065.495,0.71531991
5069.179,0.71605762
5072.868,0.71742015
5076.562,0.71919642
5080.262,0.7207505
5083.967,0.72178801
5087.678,0.72235981
5091.394,0.72256663
5095.115,0.72269672
5098.842,0.72320679
5102.574,0.72421067
5106.312,0.72533091
5110.055,0.72623646
5113.804,0.72698376
5117.558,0.72771466
5121.318,0.72841578
5125.083,0.72911302
5128.854,0.73004515
5132.63,0.73153539
5136.412,0.73373568
5140.199,0.73640961
5143.992,0.73886517
5147.791,0.74029294
5151.595,0.74038076
5155.405,0.73961036
5159.22,0.73890265
5163.041,0.73897155
5166.868,0.73988306
5170.7,0.74114608
5174.538,0.74228104
5178.382,0.74326765
5182.231,0.74438156
5186.086,0.74584133
5189.947,0.74777438
5193.814,0.75019829
5197.686,0.75280463
5201.564,0.75515292
5205.448,0.75716751
5209.338,0.75890932
5213.233,0.75988148
5217.134,0.7595061
5221.041,0.75838719
5224.954,0.75801493
5228.873,0.7590691
5232.798,0.76088471
5236.728,0.76255178
5240.665,0.76372655
5244.607,0.7644102
5248.555,0.76479308
5252.51,0.76534229
5256.47,0.76635642
5260.436,0.76761289
5264.408,0.76891527
5268.386,0.77047496
5272.37,0.77231229
5276.36,0.77402872
5280.356,0.77560157
5284.358,0.7774963
5288.367,0.77955521
5292.381,0.78079352
5296.401,0.7807957
5300.428,0.78034304
5304.46,0.78024381
5308.499,0.7805632
5312.544,0.78120069
5316.595,0.78222226
5320.652,0.78339594
5324.715,0.78426949
5328.785,0.78497254
5332.86,0.7863266
5336.942,0.78904036
5341.031,0.79310392
5345.125,0.79762934
5349.226,0.80090001
5353.333,0.80131639
5357.446,0.79908387
5361.566,0.79630156
5365.692,0.7948735
5369.824,0.79498693
5373.962,0.79573048
5378.107,0.79646082
5382.259,0.79709584
5386.417,0.79765264
5390.581,0.79818855
5394.751,0.7989765
5398.928,0.80027059
5403.112,0.80220495
5407.302,0.80514103
5411.498,0.80946351
5415.701,0.81444177
5419.911,0.81791086
5424.127,0.8181424
5428.349,0.81582228
5432.579,0.81314352
5436.814,0.81165507
5441.057,0.81179395
5445.305,0.81351872
5449.561,0.81660344
5453.823,0.82080558
5458.092,0.82602241
5462.368,0.8317023
5466.65,0.83629916
5470.939,0.83866765
5475.234,0.83970752
5479.537,0.84087742
5483.846,0.84187476
5488.162,0.84182891
5492.484,0.84172259
5496.814,0.84336457
5501.15,0.84726551
5505.493,0.85346183
5509.843,0.86266958
5514.2,0.87471983
5518.564,0.88743716
5522.934,0.89865321
5527.312,0.9081874
5531.696,0.91759881
5536.087,0.92940389
5540.486,0.94424235
5544.891,0.95309239
5549.303,0.9345905
5553.723,0.87422859
5558.149,0.80332659
5562.582,0.72357543
5567.023,0.66580817
5571.47,0.63835624
5575.925,0.61928894
5580.387,0.62925218
5584.856,0.6568489
5589.332,0.67916861
5593.815,0.69266179
5598.305,0.70349817
5602.803,0.71306365
5607.307,0.71953626
5611.819,0.72602946
5616.339,0.73470712
5620.865,0.74224815
5625.399,0.74637901
5629.94,0.75048369
5634.489,0.75648174
5639.044,0.76127424
5643.607,0.76296935
5648.178,0.76468671
5652.756,0.76738015
5657.341,0.76872402
5661.934,0.7691863
5666.534,0.77194077
5671.142,0.77653074
5675.757,0.77947275
5680.379,0.7805182
5685.01,0.78223472
5689.647,0.78425733
5694.293,0.78487202
5698.945,0.78599906
5703.606,0.79036627
5708.274,0.79611234
5712.949,0.79923016
5717.633,0.80003633
5722.324,0.80120235
5727.022,0.80255884
5731.729,0.80296065
5736.443,0.80399016
5741.165,0.80684186
5745.894,0.80960318
5750.631,0.81122963
5755.377,0.81446126
5760.13,0.82042448
5764.89,0.82508006
5769.659,0.82530697
5774.436,0.82387398
5779.22,0.82296352
5784.012,0.8210878
5788.813,0.81844027
5793.621,0.81817639
5798.437,0.82098883
5803.262,0.82441933
5808.094,0.82832342
5812.934,0.83473741
5817.782,0.84187309
5822.639,0.84475415
5827.503,0.84348169
5832.376,0.84196772
5837.257,0.84089433
5842.146,0.83946702
5847.043,0.84005777
5851.948,0.84423631
5856.862,0.84899245
5861.783,0.85145701
5866.714,0.85408499
5871.652,0.8588993
5876.598,0.86322774
5881.553,0.86468867
5886.517,0.86528171
5891.488,0.86525639
5896.468,0.86217113
5901.457,0.85735204
5906.454,0.85512626
5911.459,0.85591278
5916.473,0.85747641
5921.495,0.86042802
5926.526,0.86647795
5931.565,0.87249901
5936.613,0.87328047
5941.67,0.86995166
5946.735,0.86699159
5951.809,0.86539352
5956.891,0.86479191
5961.982,0.86621174
5967.082,0.86910744
5972.19,0.87075684
5977.307,0.87077072
5982.433,0.87137816
5987.568,0.87219491
5992.711,0.87094447
5997.864,0.86884712
6003.025,0.86878803
6008.195,0.86998794
6013.374,0.86960513
6018.562,0.86813302
6023.759,0.86830342
6028.964,0.87106811
6034.179,0.87588814
6039.403,0.88208648
6044.636,0.88695241
6049.878,0.88722094
6055.129,0.88468879
6060.389,0.88383665
6065.658,0.88482483
6070.936,0.88452956
6076.224,0.88192008
6081.52,0.87907842
6086.826,0.87768806
6092.141,0.8783811
6097.466,0.88165762
6102.8,0.88641242
6108.143,0.88925348
6113.495,0.88826285
6118.857,0.88549308
6124.228,0.88345086
6129.609,0.88277111
6134.999,0.88367081
6140.398,0.88612734
6145.807,0.88880081
6151.226,0.89010234
6156.654,0.89022646
6162.091,0.89033259
6167.539,0.89084558
6172.996,0.89176195
6178.462,0.89304563
6183.938,0.89385914
6189.424,0.89332281
6194.92,0.89221431
6200.425,0.89202984
6205.94,0.89281881
6211.465,0.89358635
6217.0,0.89402887
6222.544,0.89464255
6228.099,0.89546209
6233.663,0.89605314
6239.237,0.8963505
6244.822,0.89668854
6250.416,0.89720933
6256.02,0.89792201
6261.635,0.89894436
6267.259,0.90030077
6272.893,0.90152479
6278.538,0.90203738
6284.193,0.90185113
6289.858,0.90162222
6295.533,0.90181141
6301.218,0.90240529
6306.914,0.90333976
6312.619,0.90466266
6318.336,0.90620534
6324.062,0.90790672
6329.799,0.91001285
6335.546,0.91216224
6341.304,0.91306302
6347.072,0.91268694
6352.851,0.91298324
6358.64,0.91493528
6364.44,0.91691846
6370.25,0.91712987
6376.071,0.91600227
6381.903,0.91493622
6387.745,0.91494085
6393.598,0.91720685
6399.461,0.9223351
6405.335,0.92789631
6411.221,0.92975867
6417.116,0.9276828
6423.023,0.92476053
6428.941,0.92227968
6434.869,0.92024735
6440.809,0.91957358
6446.759,0.92044156
6452.72,0.92141807
6458.693,0.92225435
6464.676,0.92467607
6470.671,0.92887466
6476.676,0.93243035
6482.693,0.93381529
6488.721,0.93366916
6494.76,0.93218959
6500.81,0.9296428
6506.872,0.92814557
6512.945,0.92881775
6519.029,0.92972492
6525.124,0.92922404
6531.231,0.92885219
6537.35,0.93001902
6543.48,0.93159767
6549.621,0.93277338
6555.774,0.93459416
6561.938,0.93695093
6568.114,0.93801007
6574.302,0.93782528
6580.501,0.9380106
6586.712,0.93819958
6592.934,0.9371897
6599.169,0.93622041
6605.415,0.93720679
6611.673,0.93981518
6617.943,0.94270633
6624.224,0.94542363
6630.518,0.94677406
6636.823,0.94483806
6643.141,0.94087826
6649.47,0.93858151
6655.812,0.93905905
6662.166,0.94052485
6668.532,0.94148523
6674.91,0.94191111
6681.3,0.94184359
6687.702,0.94147955
6694.117,0.94201631
6700.544,0.94397407
6706.983,0.94569333
6713.435,0.94550226
6719.899,0.94418338
6726.375,0.94324536
6732.864,0.94281412
6739.365,0.94269652
6745.879,0.94337063
6752.406,0.94488428
6758.945,0.94650225
6765.497,0.94803954
6772.062,0.94979558
6778.639,0.95102355
6785.229,0.95047598
6791.832,0.94871503
6798.448,0.94752054
6805.076,0.94749509
6811.718,0.94807085
6818.372,0.94887381
6825.039,0.94975172
6831.72,0.95050334
6838.413,0.95149125
6845.12,0.95340292
6851.84,0.95562688
6858.573,0.95622665
6865.319,0.9547301
6872.078,0.9528816
6878.851,0.95190735
6885.637,0.95164378
6892.437,0.95188702
6899.25,0.95255282
6906.076,0.95296398
6912.916,0.95260536
6919.769,0.9521592
6926.636,0.95246456
6933.517,0.9533803
6940.411,0.9544965
6947.319,0.95580498
6954.241,0.95689344
6961.176,0.95703184
6968.125,0.95661162
6975.089,0.95672806
6982.066,0.95737883
6989.057,0.95774631
6996.062,0.95780447
7003.081,0.95812798
7010.114,0.95869367
7017.161,0.95933031
7024.223,0.96048738
7031.298,0.96222788
7038.388,0.96347707
7045.492,0.96350851
7052.611,0.96297211
7059.743,0.9625544
7066.891,0.96221058
7074.052,0.9620302
7081.229,0.96237016
7088.419,0.96304558
7095.625,0.96358145
7102.845,0.96408161
7110.079,0.96484791
7117.329,0.96564783
7124.593,0.9662245
7131.872,0.96686062
7139.166,0.96776339
7146.475,0.96855781
7153.799,0.96886561
7161.137,0.96878089
7168.491,0.96859396
7175.86,0.96854082
7183.244,0.96883177
7190.643,0.96948009
7198.058,0.97017986
7205.487,0.97058338
7212.933,0.97061528
7220.393,0.97050248
7227.869,0.97060086
7235.36,0.97110275
7242.867,0.97185293
7250.39,0.97261025
7257.928,0.97332039
7265.481,0.97389648
7273.051,0.97412377
7280.636,0.97410945
7288.237,0.97428075
7295.854,0.97471962
7303.487,0.9751574
7311.135,0.97564616
7318.8,0.97641834
7326.481,0.97717508
7334.178,0.97740663
7341.891,0.97724977
7349.62,0.977163
7357.366,0.97721489
7365.128,0.97738253
7372.906,0.97788447
7380.701,0.97864925
7388.512,0.97924337
7396.34,0.97962249
7404.184,0.9801489
7412.045,0.98077173
7419.922,0.98114853
7427.817,0.98140478
7435.728,0.9819093
7443.656,0.9825887
7451.601,0.983189
7459.562,0.98370897
7467.541,0.98410532
7475.537,0.98418013
7483.55,0.98406822
7491.58,0.98413434
7499.628,0.98438407
7507.692,0.98460331
7515.774,0.98484328
7523.874,0.98519872
7531.99,0.98551357
7540.125,0.98575233
7548.277,0.98611681
7556.446,0.98657104
7564.633,0.98688364
7572.838,0.9871204
7581.061,0.98743268
7589.302,0.98763221
7597.56,0.98758535
7605.837,0.98757655
7614.131,0.98774738
7622.444,0.987835
7630.774,0.98779389
7639.123,0.98792727
7647.491,0.98823174
7655.876,0.98844754
7664.28,0.98867632
7672.702,0.98914609
7681.143,0.98962104
7689.602,0.98981648
7698.08,0.98996315
7706.577,0.9902882
7715.093,0.99055587
7723.627,0.99063322
7732.18,0.99082651
7740.752,0.99124519
7749.343,0.9916017
7757.953,0.99182955
7766.583,0.99216779
7775.231,0.99258321
7783.899,0.99284097
7792.586,0.9930371
7801.292,0.99341597
7810.018,0.99387252
7818.764,0.99420334
7827.529,0.99454027
7836.313,0.99505315
7845.117,0.99559574
7853.942,0.99601652
7862.786,0.99644661
7871.649,0.99699754
7880.533,0.99753066
7889.437,0.99793911
7898.361,0.9983081
7907.305,0.99867667
7916.27,0.99896994
7925.254,0.99922669
7934.26,0.99958387
7943.285,0.0100003778
7952.331,0.0100047088
7961.398,0.0100090971
7970.485,0.0100145038
7979.594,0.0100202102
7988.723,0.0100245552
7997.872,0.0100276256
8007.043,0.0100307043
8016.235,0.0100341228
8025.448,0.0100375526
8034.682,0.0100414701
8043.937,0.010046166
8053.214,0.0100507541
8062.512,0.0100545016
8071.832,0.0100576195
8081.173,0.0100600673
8090.535,0.0100615509
8099.92,0.0100631139
8109.326,0.0100661653
8118.754,0.0100701767
8128.204,0.0100737514
8137.676,0.0100769965
8147.169,0.0100804594
8156.686,0.0100834587
8166.224,0.0100857846
8175.785,0.0100888187
8185.368,0.0100930667
8194.973,0.0100972065
8204.601,0.0101007152
8214.252,0.0101043045
8223.925,0.0101075008
8233.621,0.0101092841
8243.34,0.0101107191
8253.082,0.0101135863
8262.847,0.0101174026
8272.635,0.0101207934
8282.446,0.0101239812
8292.281,0.0101274595
8302.139,0.0101306473
8312.02,0.0101335852
8321.925,0.010137377
8331.853,0.0101418223
8341.805,0.0101453515
8351.781,0.0101477638
8361.781,0.0101503189
8371.804,0.0101533968
8381.852,0.0101564428
8391.924,0.0101593927
8402.02,0.0101625436
8412.14,0.0101655675
8422.285,0.0101680932
8432.454,0.0101703962
8442.648,0.0101728864
8452.866,0.0101755811
8463.109,0.0101783411
8473.377,0.0101811175
8483.67,0.0101840351
8493.988,0.0101870015
8504.331,0.0101894564
8514.699,0.0101911033
8525.092,0.0101927474
8535.511,0.0101951341
8545.955,0.0101977208
8556.425,0.0101997799
8566.921,0.0102018197
8577.442,0.0102042495
8587.989,0.0102064981
8598.562,0.0102084168
8609.161,0.010210587
8619.786,0.0102125899
8630.437,0.0102136719
8641.115,0.0102147689
8651.819,0.0102172485
8662.55,0.0102203801
8673.307,0.0102229929
8684.091,0.0102256166
8694.902,0.0102286825
8705.739,0.0102312831
8716.604,0.0102333409
8727.496,0.0102359271
8738.415,0.0102387155
8749.361,0.0102405834
8760.335,0.0102422696
8771.336,0.0102449946
8782.365,0.0102481437
8793.422,0.0102511157
8804.507,0.0102546982
8815.619,0.0102584827
8826.76,0.0102609475
8837.928,0.0102628276
8849.125,0.0102658028
8860.351,0.0102686919
8871.604,0.0102698553
8882.887,0.0102710346
8894.198,0.0102740357
8905.538,0.0102772109
8916.907,0.0102793931
8928.305,0.0102821951
8939.732,0.0102855451
8951.188,0.0102870598
8962.673,0.0102873552
8974.189,0.0102889423
8985.733,0.0102906722
8997.308,0.010289997
9008.912,0.0102886798
9020.546,0.0102890953
9032.21,0.0102892276
9043.905,0.0102870918
9055.629,0.0102850558
9067.384,0.0102845692
9079.17,0.0102834734
9090.986,0.0102814081
9102.833,0.0102809732
9114.711,0.0102814459
9126.62,0.0102793464
9138.56,0.0102749485
9150.531,0.0102713206
9162.534,0.0102682665
9174.568,0.0102640674
9186.634,0.0102600008
9198.731,0.0102578072
9210.86,0.0102559905
9223.022,0.0102532499
9235.215,0.0102511402
9247.441,0.010250533
9259.699,0.0102497073
9271.99,0.0102479773
9284.313,0.0102468419
9296.669,0.0102467844
9309.058,0.0102465151
9321.48,0.0102456451
9333.935,0.0102450006
9346.423,0.0102447749
9358.945,0.0102443872
9371.5,0.0102439865
9384.089,0.0102441671
9396.712,0.0102448536
9409.369,0.0102453102
9422.06,0.0102453357
9434.785,0.0102454346
9447.545,0.010246034
9460.339,0.0102469542
9473.167,0.0102481997
9486.031,0.0102500423
9498.929,0.0102521504
9511.863,0.010253572
9524.832,0.0102542625
9537.836,0.0102552465
9550.876,0.0102569471
9563.951,0.0102586292
9577.062,0.0102599815
9590.209,0.0102612325
9603.393,0.0102622176
9616.612,0.0102628057
9629.868,0.0102637623
9643.16,0.0102656201
9656.49,0.0102678873
9669.856,0.0102701872
9683.259,0.0102728286
9696.699,0.0102754064
9710.176,0.0102769305
9723.691,0.0102774836
9737.244,0.010278109
9750.834,0.0102789791
9764.463,0.0102796254
9778.129,0.0102801554
9791.834,0.0102807915
9805.577,0.0102812466
9819.359,0.0102818692
9833.18,0.0102833859
9847.039,0.0102854069
9860.938,0.0102866191
9874.875,0.0102870182
9888.853,0.0102875911
9902.869,0.0102883497
9916.926,0.0102883698
9931.022,0.0102875802
9945.159,0.0102864546
9959.336,0.0102850046
9973.553,0.010283422
9987.811,0.0102828198
10002.109,0.0102836643
10016.449,0.0102848392
10030.83,0.0102851993
10045.252,0.0102851806
10059.715,0.0102855667
10074.221,0.0102861726
10088.768,0.0102867816
10103.357,0.0102880429
10117.988,0.0102901318
10132.662,0.0102920639
10147.378,0.0102933035
10162.137,0.0102947083
10176.939,0.0102967469
10191.784,0.0102986868
10206.672,0.0103003122
10221.604,0.010302396
10236.58,0.0103046508
10251.6,0.0103058533
10266.663,0.0103063497
10281.771,0.0103078076
10296.924,0.0103102027
10312.121,0.0103122516
10327.363,0.0103140656
10342.65,0.0103165547
10357.982,0.0103189502
10373.36,0.0103203544
10388.784,0.0103217535
10404.253,0.0103239162
10419.769,0.0103254761
10435.331,0.0103255943
10450.939,0.0103253094
10466.594,0.0103249631
10482.296,0.0103238144
10498.045,0.0103227396
10513.842,0.0103233249
10529.686,0.0103249163
10545.577,0.0103262346
10561.517,0.0103280923
10577.505,0.0103310162
10593.542,0.010333311
10609.627,0.01033423
10625.761,0.0103352743
10641.944,0.0103364959
10658.176,0.0103363272
10674.458,0.0103353149
10690.79,0.0103351393
10707.172,0.0103350585
10723.604,0.0103343021
10740.086,0.0103347299
10756.619,0.0103369461
10773.203,0.0103380863
10789.839,0.0103372743
10806.525,0.0103369507
10823.264,0.0103373056
10840.054,0.0103361572
10856.896,0.0103347621
10873.791,0.0103358601
10890.738,0.0103379215
10907.738,0.0103383787
10924.791,0.0103391919
10941.898,0.0103419826
10959.058,0.0103439002
10976.272,0.0103436268
10993.541,0.0103443836
11010.863,0.0103469234
11028.24,0.0103480427
11045.672,0.0103476037
11063.16,0.0103483573
11080.702,0.0103490804
11098.301,0.0103471918
11115.955,0.0103450247
11133.665,0.0103453876
11151.432,0.0103456298
11169.256,0.0103433212
11187.137,0.0103410838
11205.075,0.010340733
11223.07,0.0103398375
11241.124,0.0103377056
11259.235,0.0103365901
11277.405,0.0103362524
11295.634,0.0103346103
11313.921,0.0103327945
11332.268,0.0103326245
11350.675,0.0103323335
11369.141,0.0103299316
11387.667,0.010326969
11406.254,0.0103248674
11424.901,0.0103225822
11443.61,0.0103197559
11462.38,0.0103175756
11481.211,0.0103158209
11500.105,0.0103134252
11519.06,0.0103110159
11538.079,0.0103096549
11557.16,0.0103087559
11576.304,0.0103076922
11595.511,0.0103067917
11614.783,0.01030591
11634.118,0.0103043417
11653.518,0.0103025016
11672.983,0.0103012936
11692.513,0.0103005992
11712.108,0.0102997725
11731.769,0.0102990283
11751.496,0.0102986999
11771.29,0.0102987
11791.15,0.0102988222
11811.077,0.0102991516
11831.072,0.0102995289
11851.134,0.0102998775
11871.265,0.0103002473
11891.464,0.0103009588
11911.731,0.0103021555
11932.068,0.0103033637
11952.475,0.0103035773
11972.951,0.0103030335
11993.497,0.0103031121
12014.114,0.0103043551
12034.802,0.0103057149
12055.562,0.01030706
12076.393,0.0103088936
12097.296,0.0103101382
12118.271,0.0103092919
12139.32,0.0103075474
12160.441,0.0103065522
12181.636,0.0103054369
12202.905,0.0103035263
12224.249,0.0103029235
12245.667,0.0103040626
12267.16,0.0103041473
12288.729,0.0103026907
12310.373,0.0103026823
12332.094,0.0103040639
12353.892,0.0103033161
12375.767,0.0103002293
12397.719,0.010297647
12419.75,0.0102953703
12441.859,0.0102920163
12464.046,0.0102901821
12486.313,0.0102923004
12508.659,0.0102952412
12531.086,0.0102955093
12553.593,0.0102943497
12576.18,0.0102934733
12598.85,0.0102916874
12621.601,0.0102893581
12644.434,0.0102892746
12667.35,0.010291227
12690.349,0.0102915853
12713.432,0.0102898635
12736.599,0.0102891907
12759.85,0.0102903597
12783.187,0.0102912273
12806.608,0.0102915484
12830.116,0.0102927912
12853.71,0.0102944195
12877.391,0.0102947361
12901.159,0.0102945246
12925.016,0.0102955917
12948.96,0.0102974618
12972.993,0.0102988126
12997.116,0.0103007004
13021.329,0.0103042648
13045.631,0.0103076978
13070.025,0.0103086805
13094.51,0.0103083068
13119.087,0.0103086075
13143.756,0.0103091834
13168.518,0.0103093367
13193.373,0.010310624
13218.322,0.0103131948
13243.366,0.0103143924
13268.505,0.0103134777
13293.74,0.0103131623
13319.07,0.010313911
13344.497,0.0103134773
13370.021,0.0103126051
13395.644,0.0103141169
13421.364,0.0103163636
13447.183,0.0103160594
13473.102,0.0103146324
13499.121,0.010314485
13525.24,0.0103131809
13551.461,0.0103094584
13577.783,0.0103068537
13604.208,0.0103063174
13630.736,0.0103039106
13657.367,0.0103003161
13684.103,0.0102999075
13710.943,0.0103004413
13737.889,0.0102960095
13764.941,0.0102893431
13792.099,0.0102862035
13819.365,0.0102842837
13846.739,0.0102801259
13874.221,0.0102781465
13901.813,0.0102803801
13929.515,0.0102809231
13957.327,0.0102781562
13985.25,0.0102780052
14013.285,0.0102793747
14041.433,0.0102756688
14069.694,0.0102701882
14098.068,0.0102708432
14126.558,0.0102731617
14155.163,0.0102692225
14183.883,0.010263223
14212.721,0.0102607814
14241.676,0.0102564364
14270.749,0.0102484142
14299.94,0.0102458188
14329.252,0.0102503409
14358.684,0.0102516704
14388.237,0.0102485063
14417.911,0.0102482209
14447.709,0.0102478407
14477.629,0.0102395163
14507.674,0.0102301557
14537.844,0.0102286966
14568.139,0.010228941
14598.561,0.0102242758
14629.109,0.0102222364
14659.786,0.0102249525
14690.592,0.0102225813
14721.528,0.0102145881
14752.594,0.0102121555
14783.791,0.0102121139
14815.121,0.0102034194
14846.583,0.010189693
14878.179,0.0101798331
14909.91,0.0101672633
14941.777,0.0101506516
14973.78,0.010144214
15005.92,0.0101512323
15038.198,0.0101518324
15070.616,0.0101428919
15103.173,0.0101347229
15135.871,0.0101261769
15168.712,0.0101050042
15201.695,0.010084809
15234.821,0.0100710847
15268.092,0.0100511547
15301.509,0.0100140791
15335.072,0.99825499
15368.783,0.99456834
15402.642,0.98880659
15436.651,0.98094962
15470.81,0.97569872
15505.12,0.96992248
15539.583,0.96241733
15574.199,0.95373003
15608.97,0.94890559
15643.896,0.93970812
15678.979,0.92715435
15714.22,0.91211777
15749.619,0.90156437
15785.178,0.88511361
15820.897,0.86439607
15856.779,0.84563186
15892.824,0.83648271
15929.033,0.81939544
15965.407,0.79159291
