Database of Origin,University of Winnipeg Spectrophotometer Facility
Sample Description,16.11. Meteorites - HEDs 16.11.3. NASA samples (4) Bruker Vertex 70 FTIR spectrometer
Other Information,MIR Glowbar KBr Beam Splitter MCT cryo cooled Dectect.
Date Added,2018-07-23 23:49:06.378975

Data ID,FTIR_MET2_6_56      
Sample ID,Talampaya
Mineral Name,Cumulate Eucrite
Grain Size,250-500 um
Viewing Geometry,i30/ e0
Resolution,7.71cm-1

Wavelength
1672.316177,0.1922
1674.476792,0.19149
1676.642997,0.19125
1678.814814,0.19085
1680.992268,0.18984
1683.175374,0.18884
1685.364158,0.18806
1687.558643,0.18683
1689.758849,0.18541
1691.9648,0.1845
1694.176519,0.18401
1696.394027,0.18371
1698.61735,0.18374
1700.846507,0.18349
1703.081521,0.18242
1705.322418,0.18149
1707.569219,0.18121
1709.821949,0.18059
1712.08063,0.17939
1714.345286,0.17819
1716.615945,0.17771
1718.892624,0.17791
1721.175349,0.17762
1723.464146,0.17636
1725.759038,0.17496
1728.060049,0.1741
1730.367205,0.17346
1732.68053,0.17293
1735.000051,0.17228
1737.325788,0.17173
1739.657769,0.17193
1741.996018,0.17217
1744.340562,0.17176
1746.691425,0.17088
1749.048633,0.17008
1751.412211,0.16952
1753.78219,0.16893
1756.158588,0.16852
1758.541435,0.16805
1760.930758,0.16745
1763.326581,0.16675
1765.728933,0.16586
1768.13784,0.16557
1770.553328,0.16539
1772.975429,0.16442
1775.404162,0.1636
1777.839558,0.16327
1780.281645,0.16318
1782.73045,0.16284
1785.186001,0.16232
1787.648326,0.16203
1790.117454,0.16152
1792.593414,0.16088
1795.07623,0.16051
1797.565933,0.16041
1800.062552,0.16002
1802.566116,0.15907
1805.076653,0.15823
1807.594193,0.15789
1810.118766,0.15795
1812.650403,0.15771
1815.189129,0.15708
1817.734976,0.15679
1820.287974,0.15682
1822.848154,0.1565
1825.415545,0.15583
1827.990179,0.15511
1830.572085,0.15425
1833.161299,0.15362
1835.757844,0.15378
1838.361756,0.15418
1840.973065,0.15404
1843.591803,0.1533
1846.218001,0.15227
1848.851693,0.15164
1851.492909,0.15196
1854.141686,0.15219
1856.798049,0.15171
1859.462034,0.15108
1862.133675,0.15077
1864.813003,0.15087
1867.500053,0.1506
1870.194858,0.14974
1872.897451,0.149
1875.60787,0.1484
1878.326142,0.14795
1881.052305,0.14767
1883.786392,0.14752
1886.528439,0.14745
1889.27848,0.14691
1892.03655,0.14612
1894.802685,0.14583
1897.576923,0.14599
1900.359294,0.14626
1903.149835,0.14633
1905.948585,0.14601
1908.755578,0.14562
1911.570851,0.14529
1914.394441,0.14496
1917.226385,0.14474
1920.066724,0.14432
1922.915487,0.14391
1925.772716,0.14389
1928.638449,0.14376
1931.512723,0.14361
1934.395578,0.14378
1937.28705,0.14374
1940.18718,0.14323
1943.09601,0.14287
1946.013571,0.14286
1948.939907,0.14249
1951.875057,0.14166
1954.819061,0.14136
1957.771959,0.14163
1960.733792,0.1418
1963.7046,0.1418
1966.684429,0.14156
1969.67331,0.1413
1972.671291,0.14136
1975.678411,0.14148
1978.694713,0.14114
1981.72024,0.14045
1984.755033,0.14027
1987.799135,0.14045
1990.852594,0.14034
1993.915443,0.14031
1996.987732,0.14064
2000.069502,0.14082
2003.160799,0.14061
2006.261667,0.14031
2009.37215,0.14024
2012.492292,0.14035
2015.622144,0.14045
2018.761742,0.1406
2021.911136,0.14068
2025.070371,0.1405
2028.239495,0.14029
2031.418553,0.14035
2034.607593,0.14053
2037.806661,0.1406
2041.015809,0.14072
2044.235076,0.14101
2047.464515,0.14129
2050.704173,0.14136
2053.9541,0.14145
2057.214344,0.1416
2060.484955,0.14167
2063.765981,0.14164
2067.057478,0.14157
2070.359486,0.14171
2073.672061,0.14194
2076.995253,0.14196
2080.329113,0.14197
2083.673693,0.14234
2087.029044,0.14278
2090.39522,0.14308
2093.772276,0.14309
2097.160256,0.14319
2100.559219,0.14392
2103.969217,0.14447
2107.390304,0.14442
2110.822536,0.1443
2114.265965,0.14443
2117.720647,0.14484
2121.186643,0.14538
2124.663997,0.14567
2128.152772,0.14579
2131.653022,0.14612
2135.164806,0.14643
2138.68818,0.1466
2142.223201,0.14719
2145.769927,0.14804
2149.328422,0.14853
2152.898735,0.14881
2156.480928,0.14908
2160.075063,0.14938
2163.681197,0.14989
2167.299393,0.15034
2170.929709,0.15071
2174.572208,0.15133
2178.226956,0.15237
2181.894004,0.15312
2185.57342,0.15337
2189.265266,0.15368
2192.969606,0.15394
2196.686503,0.15414
2200.416021,0.15469
2204.158225,0.15553
2207.913183,0.15636
2211.680953,0.15711
2215.461603,0.15775
2219.255201,0.15836
2223.061813,0.15882
2226.881507,0.15932
2230.714349,0.15999
2234.560407,0.16059
2238.419756,0.16134
2242.292454,0.16222
2246.178575,0.16288
2250.07819,0.16339
2253.991369,0.16396
2257.918183,0.16481
2261.858702,0.16582
2265.813,0.16656
2269.781154,0.16713
2273.763225,0.16782
2277.759293,0.16859
2281.769432,0.16939
2285.793716,0.17035
2289.832221,0.17131
2293.88502,0.1721
2297.952192,0.173
2302.033816,0.17389
2306.129961,0.17454
2310.240709,0.17511
2314.366139,0.17584
2318.506328,0.17656
2322.661356,0.17723
2326.831304,0.17805
2331.016252,0.17896
2335.216286,0.17998
2339.431477,0.181
2343.661913,0.18172
2347.907677,0.18235
2352.168852,0.18316
2356.445521,0.18402
2360.737771,0.185
2365.045686,0.18618
2369.369358,0.18733
2373.708861,0.18821
2378.06429,0.18878
2382.435731,0.18932
2386.823273,0.1901
2391.227005,0.19105
2395.647017,0.19204
2400.0834,0.1932
2404.53625,0.19433
2409.005647,0.19522
2413.491691,0.19598
2417.994473,0.19682
2422.514088,0.19765
2427.050631,0.1982
2431.604196,0.19874
2436.17488,0.19948
2440.762785,0.20009
2445.367997,0.20078
2449.99062,0.20182
2454.630753,0.20285
2459.288496,0.20366
2463.963948,0.20451
2468.657212,0.20541
2473.368389,0.20598
2478.097588,0.20639
2482.844901,0.20723
2487.610438,0.20803
2492.394303,0.20849
2497.196603,0.20907
2502.017445,0.20975
2506.856937,0.21065
2511.715186,0.21156
2516.592308,0.21208
2521.488402,0.21246
2526.403583,0.21293
2531.337964,0.21344
2536.291658,0.21394
2541.264778,0.2145
2546.257439,0.21517
2551.269756,0.21596
2556.301852,0.21653
2561.353831,0.21672
2566.425818,0.21701
2571.517932,0.21741
2576.630293,0.21817
2581.763021,0.21918
2586.91624,0.21968
2592.090072,0.21984
2597.284647,0.22033
2602.500077,0.22069
2607.736495,0.22062
2612.994027,0.2207
2618.272802,0.2209
2623.572949,0.2212
2628.894597,0.22148
2634.237878,0.22192
2639.60293,0.22241
2644.989874,0.2227
2650.398851,0.223
2655.829995,0.22352
2661.283444,0.22413
2666.759335,0.22432
2672.257807,0.22429
2677.779,0.22479
2683.323062,0.225
2688.890121,0.22461
2694.480328,0.22414
2700.093828,0.22359
2705.730766,0.2228
2711.39129,0.22135
2717.075548,0.219
2722.783689,0.21566
2728.515871,0.21362
2734.272233,0.21233
2740.052934,0.20909
2745.85813,0.20592
2751.687977,0.20377
2757.542631,0.20072
2763.422252,0.19741
2769.327,0.19462
2775.257043,0.19242
2781.212529,0.18989
2787.19363,0.18692
2793.200512,0.18505
2799.233341,0.18398
2805.292287,0.18239
2811.377519,0.18075
2817.489208,0.17933
2823.627536,0.17784
2829.79266,0.17646
2835.984766,0.17534
2842.20403,0.1748
2848.450631,0.17452
2854.72475,0.17362
2861.02657,0.17235
2867.356274,0.17126
2873.714055,0.17034
2880.100086,0.16966
2886.514561,0.16919
2892.957673,0.16872
2899.429613,0.1683
2905.930575,0.16787
2912.460755,0.16737
2919.020351,0.16711
2925.609569,0.16711
2932.228594,0.16689
2938.877637,0.16622
2945.556904,0.16569
2952.266599,0.16571
2959.006933,0.16594
2965.778115,0.16587
2972.580357,0.16553
2979.413883,0.16538
2986.278891,0.16551
2993.175608,0.16566
3000.104254,0.16574
3007.065051,0.16596
3014.058225,0.16637
3021.084,0.16664
3028.142607,0.16653
3035.234283,0.16631
3042.359245,0.16638
3049.517737,0.16664
3056.709994,0.16674
3063.936258,0.16666
3071.196769,0.16664
3078.491772,0.16672
3085.821513,0.1668
3093.186251,0.167
3100.586217,0.16729
3108.021674,0.16754
3115.492879,0.16791
3123.000089,0.16826
3130.543567,0.16847
3138.123574,0.16889
3145.740377,0.16952
3153.394256,0.16985
3161.08546,0.16989
3168.814274,0.17023
3176.580974,0.17092
3184.38584,0.17143
3192.229154,0.17172
3200.1112,0.172
3208.032266,0.17216
3215.992653,0.17241
3223.992633,0.17297
3232.032514,0.17372
3240.112594,0.1742
3248.233176,0.17445
3256.394564,0.17481
3264.597068,0.17509
3272.840999,0.17538
3281.126681,0.17588
3289.454413,0.17628
3297.824524,0.17652
3306.237341,0.17669
3314.693189,0.17658
3323.192401,0.17637
3331.735311,0.17625
3340.322256,0.17608
3348.95359,0.17574
3357.629634,0.17536
3366.350748,0.17483
3375.117285,0.17405
3383.929601,0.17382
3392.788054,0.17411
3401.693008,0.17406
3410.64483,0.17396
3419.643903,0.17434
3428.690579,0.17512
3437.785247,0.17595
3446.928291,0.17624
3456.120099,0.17617
3465.36106,0.17615
3474.651571,0.17616
3483.99203,0.17621
3493.382855,0.17633
3502.824429,0.17645
3512.317177,0.17675
3521.861515,0.17727
3531.457866,0.17762
3541.106657,0.1779
3550.808317,0.17827
3560.563284,0.17835
3570.372009,0.1783
3580.234914,0.17824
3590.15246,0.17797
3600.125104,0.17766
3610.153306,0.17738
3620.237532,0.1771
3630.378252,0.17698
3640.575942,0.17703
3650.831097,0.17701
3661.144177,0.17684
3671.515689,0.17657
3681.946129,0.17623
3692.436003,0.17601
3702.985818,0.17598
3713.596091,0.17589
3724.267342,0.17556
3735.000113,0.17529
3745.79491,0.1754
3756.652285,0.17535
3767.572784,0.17476
3778.556959,0.17433
3789.605369,0.17438
3800.71858,0.17435
3811.897162,0.17406
3823.141709,0.17377
3834.452778,0.1735
3845.830974,0.17332
3857.276898,0.17327
3868.791155,0.17312
3880.37436,0.17255
3892.027134,0.17191
3903.750106,0.17173
3915.543926,0.17168
3927.409209,0.17126
3939.346621,0.17069
3951.356822,0.17003
3963.44048,0.1692
3975.598271,0.16865
3987.830879,0.16861
4000.138997,0.16868
4012.523342,0.16866
4024.984593,0.16849
4037.523484,0.16794
4050.140742,0.1673
4062.837106,0.16682
4075.613322,0.1664
4088.470144,0.16603
4101.408338,0.16564
4114.428697,0.16512
4127.531971,0.16459
4140.718972,0.16442
4153.990505,0.16434
4167.347385,0.16401
4180.790439,0.1642
4194.320503,0.16617
4207.938425,0.1705
4221.64508,0.17676
4235.441304,0.18003
4249.327994,0.17745
4263.306045,0.17545
4277.376359,0.17426
4291.539855,0.17134
4305.79746,0.16748
4320.150116,0.16401
4334.598795,0.16115
4349.144426,0.15921
4363.788008,0.15773
4378.530532,0.1562
4393.373006,0.15519
4408.316449,0.15503
4423.361896,0.15499
4438.510393,0.15443
4453.763023,0.15372
4469.120824,0.15328
4484.584908,0.15277
4500.15638,0.15216
4515.836365,0.15164
4531.626,0.15076
4547.52644,0.14934
4563.538854,0.148
4579.664452,0.14679
4595.904394,0.14534
4612.259923,0.1437
4628.732277,0.14182
4645.322713,0.13954
4662.032504,0.1372
4678.862943,0.13483
4695.815342,0.13256
4712.891054,0.13026
4730.091384,0.12797
4747.417723,0.12599
4764.871462,0.1244
4782.45401,0.12301
4800.1668,0.12149
4818.011283,0.11966
4835.988934,0.11782
4854.101273,0.11616
4872.349771,0.11474
4890.735994,0.11375
4909.261506,0.11297
4927.927896,0.11179
4946.736778,0.11018
4965.68979,0.10852
4984.788594,0.10712
5004.034903,0.1059
5023.430384,0.10471
5042.976803,0.10364
5062.675928,0.10247
5082.529556,0.10102
5102.539511,0.09981
5122.707649,0.0989
5143.03585,0.09759
5163.526056,0.09614
5184.180157,0.09532
5205.000154,0.09474
5225.988055,0.09433
5247.145898,0.09439
5268.475756,0.09468
5289.979735,0.09513
5311.659976,0.09587
5333.518684,0.09659
5355.558014,0.09662
5377.780242,0.09614
5400.187657,0.09575
5422.78258,0.09553
5445.567377,0.09572
5468.544451,0.0963
5491.716246,0.09701
5515.085278,0.09762
5538.654014,0.09769
5562.425058,0.09692
5586.401024,0.09562
5610.584574,0.09474
5634.978416,0.09425
5659.585305,0.09385
5684.408043,0.09346
5709.449517,0.0928
5734.712564,0.09166
5760.200171,0.09038
5785.915346,0.0895
5811.861151,0.0888
5838.040701,0.08789
5864.457171,0.08668
5891.11379,0.08461
5918.013883,0.08256
5945.160732,0.08062
5972.557781,0.07908
6000.208507,0.07864
6028.116449,0.07863
6056.285213,0.07804
6084.718472,0.07729
6113.41997,0.07686
6142.393557,0.07639
6171.643046,0.07581
6201.172433,0.07531
6230.985758,0.07521
6261.087133,0.0753
6291.480755,0.07554
6322.1709,0.07604
6353.161929,0.07676
6384.458328,0.07727
6416.064553,0.0771
6447.985267,0.07669
6480.225188,0.07614
6512.789128,0.0756
6545.681997,0.07564
6578.908804,0.07531
6612.47466,0.07456
6646.384825,0.07411
6680.644535,0.07415
6715.259268,0.07408
6750.234571,0.07375
6785.576107,0.07348
6821.28966,0.07301
6857.381134,0.07203
6893.856559,0.07119
6930.722144,0.07086
6967.984085,0.0704
7005.648858,0.06979
7043.72303,0.0692
7082.213314,0.06867
7121.126567,0.06825
7160.469802,0.0678
7200.250183,0.06747
7240.47509,0.067
7281.15191,0.06612
7322.288355,0.06504
7363.892259,0.06411
7405.971636,0.06341
7448.534685,0.06273
7491.589791,0.06183
7535.145539,0.06092
7579.210768,0.06015
7623.794353,0.05944
7668.905555,0.05876
7714.553795,0.05801
7760.74872,0.05716
7807.500211,0.05643
7854.818386,0.05587
7902.713612,0.05534
7951.196573,0.05489
8000.278026,0.05446
8049.969186,0.05394
8100.281485,0.05352
8151.226643,0.05284
8202.816677,0.05253
8255.063908,0.05373
8307.980976,0.05552
8361.580914,0.05717
8415.876885,0.05881
8470.882607,0.0605
8526.612089,0.06217
8583.07971,0.06342
8640.300232,0.06458
8698.288814,0.06631
8757.061026,0.06886
8816.632938,0.07243
8877.020825,0.07771
8938.241648,0.08552
9000.312761,0.09441
9063.252001,0.10122
9127.077709,0.10412
9191.808745,0.10364
9257.464511,0.10149
9324.065051,0.09952
9391.630729,0.09927
9460.182767,0.10119
9529.742923,0.10363
9600.3336,0.10396
9671.977869,0.10172
9744.699495,0.09701
9818.522964,0.08965
9893.473606,0.08246
9969.577237,0.08053
10046.86077,0.0851
10125.35186,0.09109
10205.07902,0.09508
10286.0717,0.09857
10368.36026,0.10142
10451.97605,0.1024
10536.95157,0.10217
10623.32001,0.10079
10711.11603,0.09677
10800.37531,0.09019
10891.13475,0.08451
10983.43249,0.08403
11077.30797,0.09004
11172.80199,0.0969
11269.9569,0.09745
11368.81615,0.09277
11469.42513,0.08684
11571.83069,0.0808
11676.0814,0.07544
11782.22758,0.07152
11890.32139,0.06851
12000.41694,0.06607
12112.5705,0.0643
12226.84001,0.06305
12343.28609,0.0617
12461.97152,0.06008
12582.96151,0.05859
12706.32386,0.05724
12832.12902,0.05587
12960.45029,0.05504
13091.36408,0.05483
13224.94941,0.05453
13361.28907,0.05398
13500.46914,0.05371
13642.57932,0.05417
13787.71312,0.0548
13935.96807,0.05444
14087.44596,0.05352
14242.25324,0.05305
14400.50047,0.05306
14562.30382,0.05372
14727.78452,0.05405
14897.06937,0.05286
15070.29108,0.05144
15247.58859,0.05221
15429.10747,0.05616
15615.00054,0.06054
15805.42735,0.0618
16000.55605,0.06124
16200.56297,0.06239
16405.63335,0.06861
16615.96195,0.07817
16831.75363,0.08509
17053.22403,0.08792
17280.60061,0.08861
17514.12221,0.08911
17754.04165,0.08908
18000.62552,0.08836
18254.15542,0.09006
18514.92902,0.09193
18783.26128,0.09058
19059.48566,0.09103
19343.95592,0.09743
19637.04612,0.10432
19939.15447,0.10442
20250.70371,0.0978
20572.1434,0.09018
20903.95211,0.08706
21246.63979,0.08548
21600.75039,0.08032
21966.86522,0.07333
22345.60422,0.06963
22737.6323,0.07126
23143.66139,0.07357
23564.45516,0.074
24000.83388,0.07032
24453.67973,0.06972
24923.94272,0.07709
25412.64804,0.06298
