Database of Origin,University of Winnipeg Spectrophotometer Facility
Sample Description,Carbonates and Oxolates -  D&P Spectra Reflectance spectra
Other Information,"Designs and Prototypes 102F spectra/Relative to infragold 1"" disk/Reflectance only"
Date Added,2018-08-06 21:11:30.496969

Data ID,FTIR_CARB_39_9      
Sample ID,CRB215
Mineral Name,hydromagnesite
Locality,Atlin/ British Columbia/ Canada
Grain Size,<45 um
Viewing Geometry,i=35/ e=0
Resolution,~3 cm-1
Formula,Mg5(CO3)4(OH)2*4(H2O)
Composition,XRD shows almost all hydromagnesite/ with a bit of magnesite.

Wavelength
2.001142,0.59933216
2.002307,0.59872609
2.003474,0.59879563
2.004643,0.59901701
2.005812,0.59965928
2.006983,0.60019379
2.008155,0.60029831
2.009329,0.60047089
2.010504,0.60231015
2.01168,0.60121249
2.012858,0.60301564
2.014037,0.60212277
2.015217,0.60275976
2.016399,0.6036871
2.017582,0.60490003
2.018766,0.60479122
2.019952,0.60572924
2.021139,0.60566378
2.022328,0.60754715
2.023518,0.60705806
2.024709,0.60856785
2.025902,0.60849171
2.027096,0.60928965
2.028291,0.60966515
2.029488,0.6117517
2.030686,0.61015761
2.031886,0.61241039
2.033087,0.61306618
2.034289,0.61356342
2.035493,0.61389151
2.036698,0.6158842
2.037905,0.61584993
2.039113,0.61677961
2.040322,0.61700887
2.041533,0.61848201
2.042746,0.61800463
2.043959,0.61885211
2.045174,0.61899548
2.046391,0.6207174
2.047609,0.61969808
2.048828,0.62150882
2.050049,0.62183547
2.051271,0.62354112
2.052495,0.62188291
2.05372,0.62410226
2.054947,0.62278815
2.056175,0.62399333
2.057404,0.62399272
2.058635,0.62433989
2.059867,0.62565506
2.061101,0.62467619
2.062336,0.6250304
2.063573,0.62637642
2.064811,0.62699119
2.066051,0.62744106
2.067292,0.62635124
2.068534,0.62691221
2.069778,0.62791085
2.071024,0.62745761
2.072271,0.6280531
2.073519,0.62836572
2.074769,0.62809336
2.07602,0.62816931
2.077273,0.628378
2.078528,0.62928849
2.079784,0.62878266
2.081041,0.63018483
2.0823,0.62907343
2.08356,0.62975819
2.084822,0.63070025
2.086085,0.62966849
2.08735,0.63016376
2.088617,0.63093595
2.089885,0.63027273
2.091154,0.63035595
2.092425,0.6310441
2.093697,0.63139507
2.094971,0.63035492
2.096247,0.63024192
2.097524,0.63121691
2.098803,0.63264161
2.100083,0.63287065
2.101364,0.63432284
2.102648,0.63421157
2.103932,0.63486149
2.105219,0.63480521
2.106506,0.63614497
2.107796,0.63719844
2.109087,0.63731408
2.110379,0.63809431
2.111673,0.64027917
2.112969,0.63923996
2.114266,0.63879929
2.115565,0.63984199
2.116865,0.64047791
2.118167,0.64028616
2.119471,0.64094758
2.120776,0.64055201
2.122082,0.64175099
2.123391,0.64116732
2.1247,0.64145535
2.126012,0.6412344
2.127325,0.64163954
2.12864,0.64058915
2.129956,0.64140303
2.131274,0.64119592
2.132593,0.64282051
2.133914,0.64241227
2.135237,0.64282004
2.136561,0.64267244
2.137887,0.64360438
2.139214,0.64357171
2.140544,0.64380562
2.141874,0.6432245
2.143207,0.64494831
2.144541,0.64391601
2.145876,0.64407561
2.147214,0.64351473
2.148553,0.64470437
2.149893,0.64320477
2.151235,0.64426903
2.152579,0.64447393
2.153925,0.64438417
2.155272,0.64438974
2.156621,0.64441355
2.157972,0.6440355
2.159324,0.6450836
2.160678,0.64382821
2.162033,0.64390258
2.16339,0.64398305
2.164749,0.64322358
2.16611,0.64314929
2.167472,0.64527366
2.168836,0.64367104
2.170202,0.64356494
2.171569,0.64373668
2.172938,0.64313118
2.174309,0.64333316
2.175682,0.64368647
2.177056,0.64334643
2.178432,0.64383535
2.179809,0.6433224
2.181189,0.64341975
2.18257,0.64315603
2.183952,0.6437729
2.185337,0.64305587
2.186723,0.64215953
2.188111,0.64329452
2.189501,0.64324237
2.190892,0.64228564
2.192285,0.64400599
2.19368,0.64282056
2.195077,0.64247745
2.196476,0.64201981
2.197876,0.64137921
2.199278,0.64056808
2.200682,0.63932131
2.202087,0.63698493
2.203494,0.63121913
2.204903,0.63233908
2.206314,0.63698183
2.207727,0.63959204
2.209141,0.64166541
2.210557,0.64181567
2.211975,0.64160152
2.213395,0.64104775
2.214817,0.64127647
2.21624,0.6402596
2.217665,0.63948878
2.219092,0.64082017
2.220521,0.6389491
2.221952,0.63930632
2.223384,0.63930512
2.224818,0.63895262
2.226254,0.63844515
2.227692,0.63797954
2.229132,0.63869883
2.230574,0.6377868
2.232017,0.63735476
2.233462,0.6364855
2.23491,0.63525547
2.236359,0.63379294
2.237809,0.63358446
2.239262,0.63224883
2.240717,0.62955792
2.242173,0.62846824
2.243631,0.62750203
2.245092,0.62524818
2.246554,0.62245686
2.248017,0.62070441
2.249483,0.61785209
2.250951,0.61591892
2.252421,0.61445864
2.253892,0.61284796
2.255365,0.61129763
2.256841,0.61026475
2.258318,0.61155582
2.259797,0.61147709
2.261278,0.61075777
2.262761,0.61108157
2.264246,0.60918186
2.265732,0.60901439
2.267221,0.60831046
2.268712,0.60647682
2.270204,0.60549179
2.271699,0.6029665
2.273195,0.60381505
2.274694,0.60202981
2.276194,0.60087741
2.277696,0.60045107
2.279201,0.599741
2.280707,0.60021235
2.282215,0.6011504
2.283725,0.602045
2.285237,0.60217401
2.286752,0.60110519
2.288268,0.60056492
2.289786,0.59992244
2.291306,0.5992788
2.292828,0.59865429
2.294352,0.59954411
2.295878,0.59884761
2.297406,0.59831768
2.298936,0.5976461
2.300468,0.59650634
2.302002,0.59538674
2.303539,0.59358265
2.305077,0.59136554
2.306617,0.58932789
2.308159,0.58660758
2.309703,0.58407216
2.31125,0.58056115
2.312798,0.57802879
2.314348,0.57512184
2.315901,0.57321271
2.317455,0.5697614
2.319012,0.56845546
2.320571,0.56801062
2.322131,0.56708717
2.323694,0.56611144
2.325259,0.56702823
2.326826,0.5649381
2.328395,0.56354657
2.329966,0.56313647
2.33154,0.56204075
2.333115,0.55921433
2.334692,0.55656443
2.336272,0.55390233
2.337854,0.552364
2.339437,0.55181601
2.341023,0.55105686
2.342611,0.54988839
2.344201,0.54879366
2.345794,0.54831341
2.347388,0.5473834
2.348985,0.54676547
2.350583,0.54566136
2.352184,0.54421124
2.353787,0.54371792
2.355393,0.54347179
2.357,0.54223682
2.358609,0.54203124
2.360221,0.54216853
2.361835,0.54201297
2.363451,0.54287831
2.365069,0.5427254
2.36669,0.54267133
2.368312,0.54283771
2.369937,0.54333561
2.371564,0.54421819
2.373194,0.54354915
2.374825,0.54351518
2.376459,0.5431227
2.378095,0.54228804
2.379733,0.54194813
2.381373,0.54163482
2.383016,0.54112785
2.384661,0.54151846
2.386308,0.54005415
2.387957,0.53983039
2.389609,0.54012483
2.391263,0.5397366
2.392919,0.53816953
2.394577,0.53794376
2.396238,0.5371619
2.397901,0.5358097
2.399566,0.53547307
2.401233,0.5340075
2.402903,0.53357235
2.404575,0.53235897
2.40625,0.53028291
2.407926,0.52756004
2.409606,0.52655749
2.411287,0.52527571
2.412971,0.52423467
2.414657,0.52207918
2.416345,0.51991865
2.418036,0.51830464
2.419729,0.5166714
2.421424,0.51535469
2.423122,0.51420296
2.424822,0.51440894
2.426524,0.51364141
2.428229,0.51260409
2.429936,0.51310294
2.431646,0.51379935
2.433358,0.514039
2.435072,0.51454211
2.436789,0.51513913
2.438508,0.51538203
2.440229,0.51635183
2.441953,0.51669316
2.443679,0.51745532
2.445408,0.51856582
2.447139,0.51907667
2.448873,0.52028199
2.450609,0.52140599
2.452347,0.52220044
2.454088,0.52297927
2.455831,0.5234144
2.457577,0.52350856
2.459325,0.52311548
2.461076,0.52282101
2.462829,0.52078033
2.464585,0.52057185
2.466343,0.51914929
2.468104,0.51734795
2.469867,0.5180104
2.471632,0.51567245
2.4734,0.51390938
2.475171,0.51174922
2.476944,0.50972137
2.47872,0.50787237
2.480498,0.50569924
2.482278,0.50424827
2.484062,0.50253099
2.485847,0.50070404
2.487636,0.4997804
2.489427,0.49948878
2.49122,0.49841337
2.493016,0.49812801
2.494814,0.49787563
2.496615,0.49711139
2.498419,0.49619729
2.500225,0.49664774
2.502034,0.49523063
2.503845,0.49480915
2.505659,0.49340216
2.507476,0.49248264
2.509295,0.49122272
2.511117,0.49014169
2.512942,0.48876835
2.514769,0.4868911
2.516598,0.48496555
2.518431,0.48371531
2.520266,0.48236557
2.522103,0.48254096
2.523944,0.48293399
2.525787,0.48170957
2.527632,0.48057264
2.52948,0.48109378
2.531331,0.48235271
2.533185,0.4837499
2.535041,0.48540821
2.5369,0.48691686
2.538762,0.48775717
2.540627,0.49012797
2.542494,0.49178807
2.544364,0.49249806
2.546236,0.49283471
2.548112,0.49437657
2.54999,0.49398334
2.55187,0.496371
2.553754,0.49544602
2.55564,0.49535511
2.557529,0.49579514
2.559421,0.49796015
2.561316,0.50191237
2.563213,0.50165516
2.565113,0.49937576
2.567016,0.49764824
2.568922,0.5003975
2.570831,0.4997984
2.572742,0.5014022
2.574656,0.50273816
2.576573,0.50225882
2.578493,0.50116048
2.580416,0.50062586
2.582342,0.50372538
2.58427,0.50325839
2.586201,0.50236248
2.588135,0.50286393
2.590072,0.50178913
2.592012,0.5011715
2.593955,0.51161641
2.5959,0.51025069
2.597849,0.50110859
2.5998,0.50063378
2.601755,0.50220307
2.603712,0.50424608
2.605672,0.50690379
2.607635,0.50202101
2.609601,0.5006891
2.61157,0.49858617
2.613542,0.49734369
2.615517,0.49801628
2.617495,0.50001783
2.619475,0.49586655
2.621459,0.49641821
2.623446,0.48807902
2.625435,0.49115156
2.627428,0.4895664
2.629424,0.49035707
2.631423,0.48964544
2.633424,0.48664696
2.635429,0.48400718
2.637437,0.48235035
2.639447,0.4812306
2.641461,0.48173462
2.643478,0.47942252
2.645498,0.48013507
2.647521,0.47752631
2.649547,0.47368248
2.651576,0.4744112
2.653609,0.47427999
2.655644,0.47118006
2.657682,0.46862155
2.659724,0.46851011
2.661768,0.46763287
2.663816,0.46521931
2.665867,0.47548022
2.667921,0.46503283
2.669978,0.46760008
2.672038,0.46171048
2.674102,0.45355367
2.676168,0.45700285
2.678238,0.45558515
2.680311,0.44669828
2.682387,0.44214536
2.684467,0.44155113
2.686549,0.43771473
2.688635,0.43365637
2.690724,0.42783231
2.692816,0.42675515
2.694911,0.42801832
2.69701,0.41688539
2.699112,0.4095989
2.701217,0.4069195
2.703325,0.40099903
2.705437,0.39244531
2.707552,0.39240547
2.70967,0.39149588
2.711791,0.3917699
2.713916,0.37318997
2.716044,0.36553319
2.718175,0.35607207
2.72031,0.37088619
2.722448,0.35322647
2.724589,0.35002898
2.726734,0.33249928
2.728882,0.31383737
2.731034,0.29680201
2.733188,0.27118317
2.735347,0.2367027
2.737508,0.16466349
2.739673,0.07687465
2.741841,0.06736743
2.744013,0.09259445
2.746188,0.10694561
2.748367,0.14925927
2.750549,0.18677762
2.752734,0.20534181
2.754923,0.22381077
2.757115,0.22503089
2.759311,0.22101988
2.76151,0.21443814
2.763713,0.21148398
2.765919,0.20048458
2.768129,0.19666126
2.770342,0.18771857
2.772559,0.1831167
2.774779,0.17431203
2.777003,0.16898359
2.77923,0.16177769
2.781461,0.15721404
2.783696,0.14930854
2.785934,0.14673776
2.788175,0.13928984
2.79042,0.13644306
2.792669,0.12948174
2.794922,0.12697893
2.797178,0.12074599
2.799437,0.11840112
2.8017,0.11282512
2.803967,0.11066158
2.806238,0.10317675
2.808512,0.10116682
2.810789,0.0944775
2.813071,0.09107498
2.815356,0.08396959
2.817645,0.07989568
2.819937,0.07176952
2.822233,0.0681936
2.824533,0.06010017
2.826837,0.05534086
2.829144,0.0477648
2.831455,0.04294573
2.83377,0.03640021
2.836089,0.03310235
2.838411,0.02868562
2.840737,0.02757372
2.843067,0.02471621
2.845401,0.02536074
2.847739,0.02408076
2.85008,0.02649038
2.852425,0.02603977
2.854774,0.0281105
2.857127,0.02848549
2.859484,0.03054074
2.861844,0.0313021
2.864209,0.03170463
2.866577,0.03087566
2.868949,0.03176661
2.871325,0.03038293
2.873705,0.02956024
2.876089,0.02775479
2.878477,0.0272857
2.880869,0.0262981
2.883265,0.02509025
2.885664,0.02469537
2.888068,0.02449172
2.890476,0.02486867
2.892887,0.02344766
2.895303,0.02255467
2.897723,0.02234769
2.900146,0.02251638
2.902574,0.02310136
2.905006,0.02307031
2.907441,0.02352812
2.909881,0.02415595
2.912325,0.02429178
2.914773,0.02441924
2.917225,0.02719509
2.919681,0.02676023
2.922142,0.02778574
2.924606,0.02765785
2.927075,0.02777661
2.929547,0.02829546
2.932024,0.02871656
2.934505,0.02837699
2.93699,0.03008
2.939479,0.03038689
2.941973,0.03124117
2.944471,0.03069507
2.946973,0.03402075
2.949479,0.03446228
2.951989,0.03298393
2.954504,0.03456793
2.957023,0.03749426
2.959546,0.03514661
2.962073,0.03692186
2.964605,0.0372033
2.967141,0.03921109
2.969681,0.03948785
2.972226,0.04110635
2.974775,0.04390991
2.977328,0.04679411
2.979886,0.04484516
2.982448,0.04633636
2.985015,0.04649434
2.987586,0.04797502
2.990161,0.04722662
2.99274,0.05148392
2.995324,0.04959637
2.997913,0.05108134
3.000506,0.05141715
3.003103,0.05370241
3.005705,0.0528526
3.008312,0.05286974
3.010922,0.05349886
3.013538,0.05479329
3.016158,0.05566947
3.018782,0.05510176
3.021411,0.05483036
3.024044,0.05572247
3.026683,0.05634323
3.029325,0.05678407
3.031972,0.06036393
3.034624,0.06078178
3.037281,0.05694804
3.039942,0.05793798
3.042607,0.05833068
3.045278,0.06072024
3.047953,0.05909845
3.050632,0.05821921
3.053317,0.05815763
3.056006,0.05876405
3.0587,0.05869921
3.061398,0.0588897
3.064101,0.06000423
3.066809,0.06190185
3.069522,0.05867039
3.072239,0.05927364
3.074962,0.05832
3.077689,0.05928192
3.080421,0.05852841
3.083157,0.05878664
3.085899,0.0581142
3.088645,0.06082426
3.091396,0.0581242
3.094153,0.05847088
3.096914,0.05749548
3.099679,0.0597264
3.10245,0.05999766
3.105226,0.05766727
3.108007,0.05769456
3.110792,0.05697033
3.113583,0.05733023
3.116378,0.05712861
3.119179,0.05665261
3.121985,0.05671252
3.124795,0.0560118
3.127611,0.05613441
3.130431,0.05615489
3.133257,0.05533206
3.136088,0.05511517
3.138924,0.05536549
3.141765,0.05566372
3.144611,0.05546461
3.147462,0.0549434
3.150319,0.05536005
3.15318,0.05470921
3.156047,0.05555205
3.158919,0.0552164
3.161796,0.05571678
3.164678,0.05524699
3.167566,0.05590937
3.170458,0.05529868
3.173356,0.05556248
3.17626,0.05480882
3.179168,0.05618392
3.182082,0.05909126
3.185001,0.05548447
3.187926,0.05508694
3.190856,0.05493881
3.193791,0.05670929
3.196731,0.05639063
3.199677,0.05452051
3.202629,0.05588907
3.205585,0.05530332
3.208548,0.05495709
3.211515,0.05536225
3.214488,0.05902288
3.217467,0.05978251
3.220451,0.05827114
3.223441,0.05503565
3.226436,0.05772628
3.229437,0.0552417
3.232443,0.05520792
3.235455,0.0556635
3.238472,0.05535971
3.241495,0.05433912
3.244523,0.05688134
3.247558,0.0553842
3.250598,0.05662439
3.253643,0.05734592
3.256694,0.05875928
3.259751,0.05812048
3.262814,0.05378845
3.265882,0.05389243
3.268956,0.05528888
3.272036,0.05562999
3.275122,0.05393813
3.278213,0.05379814
3.28131,0.05407579
3.284413,0.05384818
3.287522,0.0553801
3.290637,0.05474537
3.293757,0.05483893
3.296884,0.05733392
3.300016,0.0551089
3.303155,0.05363444
3.306299,0.05527484
3.309449,0.05418604
3.312605,0.05344064
3.315767,0.05424081
3.318936,0.05403133
3.32211,0.05368308
3.32529,0.05519574
3.328476,0.05746953
3.331669,0.05752496
3.334867,0.05272072
3.338072,0.05322635
3.341282,0.05224836
3.344499,0.05390346
3.347722,0.05346563
3.350952,0.05473073
3.354187,0.05500443
3.357429,0.05221971
3.360677,0.05288478
3.363931,0.05443767
3.367191,0.05529695
3.370458,0.05370084
3.373731,0.05425948
3.37701,0.05303088
3.380296,0.05341186
3.383588,0.05364884
3.386886,0.05430971
3.390191,0.05430362
3.393502,0.05429556
3.39682,0.05578
3.400144,0.05624126
3.403475,0.05671728
3.406812,0.05939587
3.410156,0.05712605
3.413506,0.05650029
3.416862,0.05709557
3.420226,0.05669572
3.423596,0.05992305
3.426972,0.05974792
3.430355,0.05901695
3.433745,0.06046702
3.437141,0.06144057
3.440545,0.06461013
3.443954,0.06763965
3.447371,0.06508305
3.450794,0.06484174
3.454224,0.06594785
3.457661,0.06665376
3.461105,0.06751018
3.464556,0.06976589
3.468013,0.06935955
3.471477,0.07023323
3.474948,0.07165467
3.478426,0.07217581
3.481911,0.07366013
3.485403,0.07408204
3.488902,0.07602588
3.492408,0.08019417
3.495921,0.07730046
3.499441,0.07842645
3.502968,0.0793111
3.506502,0.08070154
3.510043,0.08273745
3.513592,0.08329103
3.517147,0.08477222
3.52071,0.08611887
3.52428,0.08856393
3.527857,0.08814742
3.531441,0.09024917
3.535032,0.09460794
3.538631,0.09327239
3.542237,0.09379284
3.545851,0.09480672
3.549471,0.09581845
3.553099,0.09693165
3.556735,0.09865816
3.560378,0.09971106
3.564028,0.10047642
3.567686,0.10223825
3.571351,0.10427194
3.575024,0.10456827
3.578704,0.10559443
3.582392,0.1065091
3.586088,0.10916368
3.589791,0.10983532
3.593501,0.11026793
3.59722,0.11318561
3.600946,0.11330319
3.604679,0.11345347
3.608421,0.1147882
3.61217,0.11489273
3.615926,0.11819328
3.619691,0.11882092
3.623463,0.11933408
3.627244,0.12103527
3.631032,0.12163823
3.634828,0.12253705
3.638632,0.12363139
3.642444,0.12504516
3.646263,0.12635851
3.650091,0.12864585
3.653927,0.12992277
3.657771,0.12929456
3.661623,0.13084634
3.665483,0.13246787
3.669351,0.13288426
3.673227,0.13401884
3.677111,0.13549868
3.681004,0.13809168
3.684905,0.13936402
3.688814,0.13994092
3.692731,0.14081566
3.696656,0.14233158
3.70059,0.14262381
3.704532,0.14403287
3.708483,0.14537544
3.712442,0.14670812
3.716409,0.14807334
3.720385,0.14934351
3.72437,0.14998458
3.728362,0.15084529
3.732364,0.15217603
3.736374,0.15278562
3.740392,0.15353578
3.744419,0.1550722
3.748455,0.15534736
3.752499,0.15564277
3.756553,0.15615517
3.760614,0.15626385
3.764685,0.15678799
3.768764,0.15724079
3.772853,0.15783403
3.77695,0.15883362
3.781056,0.15956088
3.78517,0.1604255
3.789294,0.16080045
3.793427,0.16189563
3.797568,0.16226606
3.801719,0.16387888
3.805879,0.16557555
3.810048,0.16668876
3.814225,0.16793628
3.818412,0.17129995
3.822609,0.17382444
3.826814,0.1762783
3.831029,0.17789955
3.835252,0.17964544
3.839486,0.18069162
3.843728,0.18129743
3.84798,0.18114864
3.852241,0.1820637
3.856512,0.18179164
3.860792,0.181974
3.865081,0.18295055
3.86938,0.18431062
3.873689,0.18592603
3.878007,0.18730312
3.882334,0.18859659
3.886672,0.18905929
3.891019,0.19112638
3.895375,0.19254549
3.899742,0.19456662
3.904118,0.19664009
3.908504,0.19869847
3.9129,0.20004242
3.917305,0.20152396
3.921721,0.20299464
3.926146,0.20424403
3.930581,0.20469505
3.935027,0.20544041
3.939482,0.20682119
3.943948,0.20902267
3.948423,0.21199911
3.952909,0.21692657
3.957405,0.22219568
3.961911,0.22856595
3.966427,0.23414179
3.970954,0.23961152
3.975491,0.24446573
3.980038,0.24933531
3.984595,0.25363362
3.989163,0.25700842
3.993742,0.26045153
3.99833,0.26357566
4.00293,0.26608118
4.00754,0.26935737
4.01216,0.27117389
4.016791,0.27400543
4.021433,0.27660705
4.026086,0.27839423
4.030749,0.28104428
4.035423,0.28304613
4.040108,0.28606715
4.044804,0.28785369
4.04951,0.2902378
4.054228,0.29241894
4.058956,0.29460206
4.063695,0.29703322
4.068446,0.2991919
4.073207,0.30167844
4.07798,0.30387643
4.082764,0.30597062
4.087559,0.30827964
4.092365,0.31097067
4.097183,0.31313099
4.102012,0.31481367
4.106852,0.31838124
4.111703,0.32037837
4.116566,0.32274967
4.121441,0.32533303
4.126327,0.32749367
4.131224,0.32991548
4.136133,0.33213441
4.141054,0.33506681
4.145987,0.33775931
4.150931,0.34074094
4.155887,0.3433148
4.160854,0.34678134
4.165834,0.34883603
4.170826,0.35183993
4.175829,0.35446769
4.180844,0.35775453
4.185872,0.36059032
4.190911,0.36535169
4.195963,0.37069599
4.201026,0.38073621
4.206102,0.39465244
4.21119,0.41058233
4.216291,0.42411862
4.221404,0.43846249
4.226529,0.447945
4.231666,0.45969848
4.236816,0.46466417
4.241979,0.47120414
4.247154,0.46592708
4.252341,0.46197214
4.257542,0.43819271
4.262754,0.45242949
4.26798,0.47296547
4.273219,0.47084769
4.27847,0.47426507
4.283734,0.47292152
4.289011,0.47864058
4.294301,0.4798127
4.299604,0.47953546
4.30492,0.48116241
4.31025,0.48234826
4.315592,0.47815934
4.320948,0.47512288
4.326317,0.47647557
4.331699,0.47483898
4.337095,0.47340821
4.342504,0.47247932
4.347926,0.47301776
4.353362,0.47400278
4.358811,0.47494757
4.364275,0.47719734
4.369751,0.47927203
4.375242,0.48135633
4.380746,0.48365572
4.386264,0.48776731
4.391796,0.49143143
4.397342,0.49539555
4.402902,0.49889767
4.408476,0.50221823
4.414064,0.50583513
4.419666,0.50919378
4.425282,0.51259949
4.430913,0.51580711
4.436558,0.51877904
4.442217,0.5222919
4.447891,0.52579009
4.453579,0.52843552
4.459281,0.53096591
4.464998,0.53354107
4.47073,0.53621741
4.476477,0.53877375
4.482238,0.54145534
4.488014,0.54357768
4.493805,0.54626144
4.499611,0.54822923
4.505431,0.55130116
4.511267,0.55405737
4.517118,0.55672442
4.522984,0.55947203
4.528865,0.56235251
4.534762,0.56467495
4.540674,0.56671309
4.546601,0.56991697
4.552543,0.57171138
4.558502,0.57549042
4.564475,0.577166
4.570465,0.58015696
4.57647,0.58276782
4.582491,0.58515792
4.588527,0.5871462
4.59458,0.59013505
4.600648,0.59262359
4.606732,0.59555833
4.612833,0.59778009
4.618949,0.59997044
4.625082,0.60265628
4.631231,0.60507049
4.637397,0.60833204
4.643578,0.61096658
4.649777,0.61375513
4.655991,0.61645298
4.662223,0.61899468
4.668471,0.62174229
4.674735,0.6251577
4.681017,0.62787543
4.687315,0.63004829
4.69363,0.63305209
4.699962,0.63612842
4.706312,0.63812275
4.712678,0.64120375
4.719062,0.64382564
4.725463,0.6460445
4.731881,0.64940309
4.738316,0.65198003
4.744769,0.6541478
4.75124,0.65728561
4.757728,0.65939887
4.764234,0.66193362
4.770758,0.66550743
4.777299,0.66740048
4.783859,0.67031281
4.790436,0.67240119
4.797032,0.6762604
4.803645,0.67805785
4.810277,0.67924937
4.816927,0.68029636
4.823596,0.68343728
4.830283,0.68526943
4.836988,0.68748231
4.843712,0.69096661
4.850455,0.69170112
4.857216,0.69421599
4.863996,0.69589558
4.870795,0.69847755
4.877613,0.70015863
4.884451,0.70258462
4.891307,0.70431431
4.898182,0.70769889
4.905077,0.70873194
4.911991,0.71051198
4.918925,0.71243138
4.925878,0.71445023
4.932851,0.71642733
4.939844,0.71885874
4.946856,0.72048218
4.953888,0.72371158
4.960941,0.72637214
4.968013,0.72532428
4.975105,0.72811984
4.982218,0.72930787
4.989351,0.73174419
4.996504,0.73284001
5.003678,0.73563961
5.010872,0.73572471
5.018087,0.74202664
5.025323,0.7428105
5.03258,0.74250611
5.039857,0.74383529
5.047156,0.74594621
5.054475,0.74802331
5.061816,0.74951576
5.069179,0.75155436
5.076562,0.75341749
5.083967,0.75871574
5.091394,0.75730049
5.098842,0.75980754
5.106312,0.76086291
5.113804,0.76384455
5.121318,0.76477647
5.128854,0.76719792
5.136412,0.76812828
5.143992,0.77508099
5.151595,0.77705376
5.15922,0.77237906
5.166868,0.77657281
5.174538,0.77672621
5.182231,0.77995104
5.189947,0.77964329
5.197686,0.78736914
5.205448,0.7869578
5.213233,0.79362123
5.221041,0.78894739
5.228873,0.78920274
5.236728,0.79490708
5.244607,0.79336278
5.25251,0.79533711
5.260436,0.79661413
5.268386,0.79911944
5.27636,0.80240894
5.284358,0.80280529
5.292381,0.80957645
5.300428,0.80536116
5.308499,0.80687891
5.316595,0.80807713
5.324715,0.80930651
5.33286,0.81065291
5.341031,0.81230351
5.349226,0.8282329
5.357446,0.82046322
5.365692,0.81661844
5.373962,0.82010263
5.382259,0.82130943
5.390581,0.82299899
5.398928,0.82504561
5.407302,0.82880886
5.415701,0.83811806
5.424127,0.8488679
5.432579,0.83088157
5.441057,0.84020751
5.449561,0.83655313
5.458092,0.84840693
5.46665,0.85092233
5.475234,0.8504329
5.483846,0.84857325
5.492484,0.84096745
5.50115,0.84511459
5.509843,0.84002743
5.518564,0.84454101
5.527312,0.83783985
5.536087,0.83131326
5.544891,0.83368892
5.553723,0.82569058
5.562582,0.80219718
5.57147,0.77554388
5.580387,0.75022682
5.589332,0.81871923
5.598305,0.86124087
5.607307,0.86886281
5.616339,0.8779815
5.625399,0.88193289
5.634489,0.88284642
5.643607,0.89165289
5.652756,0.88989774
5.661934,0.88220024
5.671142,0.8868539
5.680379,0.89014645
5.689647,0.8853166
5.698945,0.88937693
5.708274,0.89326978
5.717633,0.90104055
5.727022,0.89034656
5.736443,0.89760011
5.745894,0.89516099
5.755377,0.89302574
5.76489,0.90995417
5.774436,0.90201874
5.784012,0.89282528
5.793621,0.89900803
5.803262,0.89486687
5.812934,0.90984177
5.822639,0.9207499
5.832376,0.91051837
5.842146,0.90123559
5.851948,0.90973266
5.861783,0.91245836
5.871652,0.9201749
5.881553,0.93209267
5.891488,0.92679033
5.901457,0.91929615
5.911459,0.91359285
5.921495,0.92245323
5.931565,0.93408743
5.94167,0.93986227
5.951809,0.91953631
5.961982,0.93643354
5.97219,0.92915842
5.982433,0.93815983
5.992711,0.93496495
6.003025,0.9284998
6.013374,0.93918175
6.023759,0.93097099
6.034179,0.93591324
6.044636,0.968227
6.055129,0.94269893
6.065658,0.95114993
6.076224,0.95138542
6.086826,0.94018503
6.097466,0.94517153
6.108143,0.96158871
6.118857,0.95309827
6.129609,0.94623132
6.140398,0.95527413
6.151226,0.95424119
6.162091,0.95693565
6.172996,0.95266857
6.183938,0.96758454
6.19492,0.95168912
6.20594,0.9592394
6.217,0.95635068
6.228099,0.95966143
6.239237,0.95931022
6.250416,0.96016413
6.261635,0.96004883
6.272893,0.96230352
6.284193,0.96202831
6.295533,0.96408681
6.306914,0.96360219
6.318336,0.96611428
6.329799,0.96781495
6.341304,0.98048193
6.352851,0.96653259
6.36444,0.97731281
6.376071,0.97316495
6.387745,0.97322243
6.399461,0.97827433
6.411221,0.99884698
6.423023,0.98033039
6.434869,0.98193452
6.446759,0.9791645
6.458693,0.98204384
6.470671,0.9857508
6.482693,0.99775812
6.49476,0.9901367
6.506872,0.98526526
6.519029,0.99113772
6.531231,0.98582114
6.54348,0.99079399
6.555774,0.99312277
6.568114,0.99732573
6.580501,0.99647753
6.592934,0.99561855
6.605415,0.99330085
6.617943,0.9981769
6.630518,0.0100795168
6.643141,0.99492117
6.655812,0.99551156
6.668532,0.99981143
6.6813,0.99816517
6.694117,0.99669682
6.706983,0.0100524709
6.719899,0.99986132
6.732864,0.99930097
6.745879,0.99886224
6.758945,0.0100187147
6.772062,0.010055091
6.785229,0.0100926424
6.798448,0.0100213619
6.811718,0.0100542665
6.825039,0.0100653773
6.838413,0.0100557156
6.85184,0.0101467174
6.865319,0.0101178048
6.878851,0.010071415
6.892437,0.010112493
6.906076,0.010101842
6.919769,0.0101022808
6.933517,0.0100885902
6.947319,0.0101459056
6.961176,0.0101439174
6.975089,0.0101370983
6.989057,0.0101514267
7.003081,0.0101441225
7.017161,0.010160405
7.031298,0.0101713386
7.045492,0.0102046412
7.059743,0.0101570248
7.074052,0.0101728373
7.088419,0.0101672179
7.102845,0.0101891172
7.117329,0.0101880639
7.131872,0.0101944756
7.146475,0.0102196826
7.161137,0.0102243406
7.17586,0.0102160828
7.190643,0.010214169
7.205487,0.0102363471
7.220393,0.010207478
7.23536,0.0102368049
7.25039,0.0102233806
7.265481,0.0102553962
7.280636,0.0102397277
7.295854,0.0102505351
7.311135,0.0102444757
7.326481,0.010273143
7.341891,0.0102683884
7.357366,0.0102600656
7.372906,0.0102652135
7.388512,0.0102729527
7.404184,0.0102691022
7.419922,0.0102794455
7.435728,0.0102803094
7.451601,0.0103023282
7.467541,0.0103034363
7.48355,0.0102923734
7.499628,0.0102997678
7.515774,0.0103059228
7.53199,0.0103124403
7.548277,0.0103175764
7.564633,0.0103235877
7.581061,0.0103329978
7.59756,0.0103311245
7.614131,0.0103353189
7.630774,0.0103345894
7.647491,0.0103454277
7.66428,0.010341929
7.681143,0.010348817
7.69808,0.0103529208
7.715093,0.0103590544
7.73218,0.0103598106
7.749343,0.0103711431
7.766583,0.010361398
7.783899,0.0103746822
7.801292,0.010378432
7.818764,0.0103794521
7.836313,0.0103836058
7.853942,0.0103890157
7.871649,0.0103926001
7.889437,0.0104004098
7.907305,0.0103989806
7.925254,0.0104071527
7.943285,0.0104106865
7.961398,0.0104174267
7.979594,0.0104191953
7.997872,0.0104323021
8.016235,0.0104362296
8.034682,0.0104413771
8.053214,0.0104460654
8.071832,0.0104549079
8.090535,0.0104564587
8.109326,0.0104668717
8.128204,0.0104679625
8.147169,0.0104766379
8.166224,0.0104816749
8.185368,0.0104862339
8.204601,0.0104874861
8.223925,0.0104967443
8.24334,0.0104961719
8.262847,0.0105037675
8.282446,0.0105087153
8.302139,0.0105143291
8.321925,0.010518462
8.341805,0.0105217402
8.361781,0.0105224035
8.381852,0.0105304365
8.40202,0.0105280936
8.422285,0.0105356077
8.442648,0.0105405777
8.463109,0.0105526
8.48367,0.010559811
8.504331,0.0105672037
8.525092,0.0105725086
8.545955,0.0105756149
8.566921,0.0105797518
8.587989,0.0105874006
8.609161,0.0105911437
8.630437,0.0105962858
8.651819,0.0105980056
8.673307,0.0106063793
8.694902,0.010608031
8.716604,0.010615154
8.738415,0.010612878
8.760335,0.0106155113
8.782365,0.0106193837
8.804507,0.0106280981
8.82676,0.0106317784
8.849125,0.0106368367
8.871604,0.0106421838
8.894198,0.0106531973
8.916907,0.0106571406
8.939732,0.0106595475
8.962673,0.0106603836
8.985733,0.01066948
9.008912,0.010663232
9.03221,0.0106639323
9.055629,0.010666687
9.07917,0.0106685261
9.102833,0.0106700809
9.12662,0.0106731204
9.150531,0.010667397
9.174568,0.0106708663
9.198731,0.0106721389
9.223022,0.010673035
9.247441,0.0106727089
9.27199,0.0106712759
9.296669,0.0106731832
9.32148,0.0106715811
9.346423,0.0106738393
9.3715,0.010676656
9.396712,0.0106753244
9.42206,0.0106754222
9.447545,0.0106772933
9.473167,0.0106811748
9.498929,0.010676035
9.524832,0.0106764996
9.550876,0.0106735961
9.577062,0.0106788649
9.603393,0.0106779428
9.629868,0.0106792444
9.65649,0.0106795547
9.683259,0.0106829873
9.710176,0.0106869341
9.737244,0.0106868951
9.764463,0.0106869935
9.791834,0.0106881496
9.819359,0.0106916146
9.847039,0.0106915672
9.874875,0.0106935357
9.902869,0.0106975133
9.931022,0.0106956376
9.959336,0.0106962814
9.987811,0.010697954
10.016449,0.010697959
10.045252,0.010695268
10.074221,0.0106935282
10.103357,0.010689139
10.132662,0.0106910389
10.162137,0.0106875157
10.191784,0.0106889088
10.221604,0.0106879043
10.2516,0.0106875558
10.281771,0.0106866536
10.312121,0.0106865424
10.34265,0.010686999
10.37336,0.0106862282
10.404253,0.0106841871
10.435331,0.0106851815
10.466594,0.0106840892
10.498045,0.0106873269
10.529686,0.0106882918
10.561517,0.0106851003
10.593542,0.0106877126
10.625761,0.0106872546
10.658176,0.0106890744
10.69079,0.0106902893
10.723604,0.0106935772
10.756619,0.0106936492
10.789839,0.0106964999
10.823264,0.0106979771
10.856896,0.0106962963
10.890738,0.0106920434
10.924791,0.010697074
10.959058,0.0106955553
10.993541,0.0107021382
11.02824,0.0106983079
11.06316,0.0106982179
11.098301,0.0107030735
11.133665,0.0107013655
11.169256,0.0107029471
11.205075,0.0107008325
11.241124,0.0106961994
11.277405,0.0106910434
11.313921,0.0106963106
11.350675,0.0106968256
11.387667,0.0106879917
11.424901,0.0106945728
11.46238,0.0106924523
11.500105,0.0106874214
11.538079,0.01068577
11.576304,0.0106869653
11.614783,0.0106815506
11.653518,0.0106832877
11.692513,0.0106745322
11.731769,0.0106715731
11.77129,0.0106636762
11.811077,0.0106599534
11.851134,0.010657678
11.891464,0.0106528891
11.932068,0.0106483086
11.972951,0.010645996
12.014114,0.0106424621
12.055562,0.0106441022
12.097296,0.0106402815
12.13932,0.0106433154
12.181636,0.0106468628
12.224249,0.0106528228
12.26716,0.0106430173
12.310373,0.0106458229
12.353892,0.0106392645
12.397719,0.0106418285
12.441859,0.010640282
12.486313,0.0106388978
12.531086,0.0106402271
12.57618,0.0106382675
12.621601,0.0106425753
12.66735,0.0106428066
12.713432,0.0106407007
12.75985,0.0106429951
12.806608,0.0106363935
12.85371,0.010637533
12.901159,0.0106343624
12.94896,0.0106274839
12.997116,0.010626875
13.045631,0.0106220602
13.09451,0.0106211135
13.143756,0.0106146461
13.193373,0.0106148075
13.243366,0.0106099038
13.29374,0.0106027103
13.344497,0.0106058605
13.395644,0.0106015822
13.447183,0.0105932848
13.499121,0.0105899732
13.551461,0.0105963646
13.604208,0.0105896717
13.657367,0.0105878318
13.710943,0.0105849623
13.764941,0.0105857529
13.819365,0.0105734944
13.874221,0.0105716296
13.929515,0.0105731356
13.98525,0.010566153
14.041433,0.0105664393
14.098068,0.0105557344
14.155163,0.0105550823
14.212721,0.0105359528
14.270749,0.0105249422
14.329252,0.0105122017
14.388237,0.0105022965
14.447709,0.0104776282
14.507674,0.0104704349
14.568139,0.0104432068
14.629109,0.0104207653
14.690592,0.0104253248
14.752594,0.0103869774
14.815121,0.0103826993
14.878179,0.0103560071
14.941777,0.99188686
15.00592,0.0102526773
15.070616,0.0102840517
15.135871,0.0101586853
15.201695,0.010151597
15.268092,0.99890865
15.335072,0.99212385
15.402642,0.97881422
15.47081,0.96742454
15.539583,0.94083157
15.60897,0.92045982
15.678979,0.88824783
15.749619,0.85045824
15.820897,0.80194999
15.892824,0.78977758
15.965407,0.7383172
