Database of Origin,University of Winnipeg Spectrophotometer Facility
Sample Description,See Master Clays in HOSERLab database
Date Added,2016-12-11 20:56:55.085975

Data ID,FTIR_CLAY_01        
Sample ID,BEI101
Mineral Name,Beidellite
Grain Size,<45 m
Viewing Geometry,35/0
Resolution,11-72 nm
Material Class,Phyllosilicate

Wavelength
2001.142,0.37953676
2002.307,0.38045416
2003.474,0.3816649
2004.643,0.38273005
2005.812,0.38362005
2006.983,0.38467335
2008.155,0.38574576
2009.329,0.38681232
2010.504,0.38774579
2011.68,0.38859614
2012.858,0.38943486
2014.037,0.39014793
2015.217,0.3909764
2016.399,0.39204445
2017.582,0.39310699
2018.766,0.3939523
2019.952,0.39466423
2021.139,0.39549325
2022.328,0.39642835
2023.518,0.39718415
2024.709,0.39774733
2025.902,0.39847329
2027.096,0.39942192
2028.291,0.40011417
2029.488,0.40054572
2030.686,0.40138929
2031.886,0.40244739
2033.087,0.4031339
2034.289,0.40397025
2035.493,0.40517157
2036.698,0.40589192
2037.905,0.40610788
2039.113,0.4067339
2040.322,0.40760381
2041.533,0.40815459
2042.746,0.40882495
2043.959,0.40953441
2045.174,0.41011855
2046.391,0.41076818
2047.609,0.41124633
2048.828,0.41169262
2050.049,0.41203348
2051.271,0.41225835
2052.495,0.41295981
2053.72,0.41367016
2054.947,0.41389336
2056.175,0.41436409
2057.404,0.41524985
2058.635,0.41589807
2059.867,0.41623217
2061.101,0.41657651
2062.336,0.41693959
2063.573,0.41757
2064.811,0.4183615
2066.051,0.4185943
2067.292,0.41858336
2068.534,0.41888862
2069.778,0.41923057
2071.024,0.41960951
2072.271,0.42015762
2073.519,0.42054071
2074.769,0.42078829
2076.02,0.4211868
2077.273,0.42161928
2078.528,0.42181801
2079.784,0.42190098
2081.041,0.42195536
2082.3,0.42188381
2083.56,0.42224466
2084.822,0.423054
2086.085,0.42343815
2087.35,0.42348776
2088.617,0.42387196
2089.885,0.42447452
2091.154,0.42476537
2092.425,0.42473484
2093.697,0.4247595
2094.971,0.42482398
2096.247,0.42496767
2097.524,0.42560892
2098.803,0.42614113
2100.083,0.42602027
2101.364,0.42616717
2102.648,0.42673496
2103.932,0.42764472
2105.219,0.42874001
2106.506,0.42878432
2107.796,0.42831627
2109.087,0.42868757
2110.379,0.42940124
2111.673,0.4300347
2112.969,0.43083667
2114.266,0.43146569
2115.565,0.43188846
2116.865,0.43233689
2118.167,0.43258975
2119.471,0.43276453
2120.776,0.43307967
2122.082,0.43326587
2123.391,0.43327019
2124.7,0.43332428
2126.012,0.43326523
2127.325,0.43306099
2128.64,0.43285912
2129.956,0.43282195
2131.274,0.43301504
2132.593,0.43316271
2133.914,0.43320364
2135.237,0.43310864
2136.561,0.43287635
2137.887,0.43261128
2139.214,0.43242885
2140.544,0.43244274
2141.874,0.43211348
2143.207,0.43106469
2144.541,0.42995788
2145.876,0.42916182
2147.214,0.42856684
2148.553,0.42814743
2149.893,0.42739144
2151.235,0.42623261
2152.579,0.42512576
2153.925,0.4240438
2155.272,0.42298204
2156.621,0.42140701
2157.972,0.41936591
2159.324,0.41803214
2160.678,0.41708561
2162.033,0.41587098
2163.39,0.41484796
2164.749,0.41406827
2166.11,0.41290882
2167.472,0.41171289
2168.836,0.41094521
2170.202,0.40964186
2171.569,0.40796368
2172.938,0.40663375
2174.309,0.40530906
2175.682,0.40395372
2177.056,0.40245339
2178.432,0.40076799
2179.809,0.39924938
2181.189,0.39808613
2182.57,0.39685912
2183.952,0.39499325
2185.337,0.39340965
2186.723,0.39246446
2188.111,0.39103864
2189.501,0.38938144
2190.892,0.38797664
2192.285,0.38642756
2193.68,0.38492109
2195.077,0.38380716
2196.476,0.38278
2197.876,0.38152518
2199.278,0.37996694
2200.682,0.37792367
2202.087,0.37527615
2203.494,0.3722644
2204.903,0.3695573
2206.314,0.36803277
2207.727,0.36886629
2209.141,0.37178923
2210.557,0.37531057
2211.975,0.3784642
2213.395,0.38051118
2214.817,0.38198357
2216.24,0.38354388
2217.665,0.38535176
2219.092,0.38715777
2220.521,0.38826987
2221.952,0.38914323
2223.384,0.38992379
2224.818,0.39037657
2226.254,0.3909091
2227.692,0.3915319
2229.132,0.39212859
2230.574,0.39282907
2232.017,0.39362914
2233.462,0.39431802
2234.91,0.39460716
2236.359,0.39469669
2237.809,0.39508955
2239.262,0.39581183
2240.717,0.39650799
2242.173,0.39719074
2243.631,0.3979637
2245.092,0.39862158
2246.554,0.39918601
2248.017,0.39965573
2249.483,0.39995694
2250.951,0.40061191
2252.421,0.40153708
2253.892,0.40212594
2255.365,0.40276465
2256.841,0.40364889
2258.318,0.40436514
2259.797,0.40465853
2261.278,0.40480229
2262.761,0.4050416
2264.246,0.40550703
2265.732,0.40616729
2267.221,0.4064051
2268.712,0.4061471
2270.204,0.40603231
2271.699,0.40613339
2273.195,0.405903
2274.694,0.40541329
2276.194,0.40505102
2277.696,0.4046516
2279.201,0.40399032
2280.707,0.40330002
2282.215,0.4027241
2283.725,0.40237492
2285.237,0.40203442
2286.752,0.40139004
2288.268,0.40065774
2289.786,0.39994621
2291.306,0.39907698
2292.828,0.39830298
2294.352,0.3978607
2295.878,0.39726865
2297.406,0.39643241
2298.936,0.39544863
2300.468,0.39456111
2302.002,0.39402666
2303.539,0.39349741
2305.077,0.39278581
2306.617,0.39201469
2308.159,0.3910788
2309.703,0.38957924
2311.25,0.3880279
2312.798,0.38715388
2314.348,0.38630516
2315.901,0.38485256
2317.455,0.38313986
2319.012,0.38171735
2320.571,0.38065659
2322.131,0.37967685
2323.694,0.37838012
2325.259,0.37693031
2326.826,0.37569606
2328.395,0.374578
2329.966,0.37324521
2331.54,0.37162337
2333.115,0.37046822
2334.692,0.36924005
2336.272,0.36778941
2337.854,0.36689363
2339.437,0.3656257
2341.023,0.36423597
2342.611,0.36357849
2344.201,0.36283895
2345.794,0.36172681
2347.388,0.36067615
2348.985,0.35962841
2350.583,0.35860739
2352.184,0.35779659
2353.787,0.35703576
2355.393,0.35618635
2357.0,0.3551489
2358.609,0.35408329
2360.221,0.35340571
2361.835,0.35285964
2363.451,0.35209139
2365.069,0.35113488
2366.69,0.35011578
2368.312,0.34922158
2369.937,0.34831347
2371.564,0.34720714
2373.194,0.34595922
2374.825,0.34492432
2376.459,0.34416355
2378.095,0.34305168
2379.733,0.34165309
2381.373,0.34080507
2383.016,0.340437
2384.661,0.33988668
2386.308,0.33916642
2387.957,0.33866234
2389.609,0.33816416
2391.263,0.33749586
2392.919,0.33687691
2394.577,0.336201
2396.238,0.33536247
2397.901,0.33437038
2399.566,0.33370792
2401.233,0.33345635
2402.903,0.33279491
2404.575,0.33151331
2406.25,0.33004838
2407.926,0.32906824
2409.606,0.3283553
2411.287,0.32707212
2412.971,0.32561446
2414.657,0.32450519
2416.345,0.32341391
2418.036,0.32211561
2419.729,0.3207707
2421.424,0.31943079
2423.122,0.31800424
2424.822,0.31642917
2426.524,0.31490585
2428.229,0.31353484
2429.936,0.31215319
2431.646,0.31062929
2433.358,0.3090445
2435.072,0.30763487
2436.789,0.30618905
2438.508,0.30503622
2440.229,0.3042947
2441.953,0.30320142
2443.679,0.30187691
2445.408,0.30088801
2447.139,0.30012623
2448.873,0.2991521
2450.609,0.29814144
2452.347,0.29749356
2454.088,0.29685964
2455.831,0.29586103
2457.577,0.29461148
2459.325,0.29360288
2461.076,0.29297259
2462.829,0.29223447
2464.585,0.29135302
2466.343,0.29064548
2468.104,0.28979647
2469.867,0.28869466
2471.632,0.28789728
2473.4,0.28716152
2475.171,0.28628492
2476.944,0.28539766
2478.72,0.28441492
2480.498,0.28347905
2482.278,0.28245166
2484.062,0.28135415
2485.847,0.28036083
2487.636,0.27947787
2489.427,0.27883628
2491.22,0.2782506
2493.016,0.27745056
2494.814,0.27664638
2496.615,0.27600391
2498.419,0.2753733
2500.225,0.27475533
2502.034,0.27420765
2503.845,0.27382129
2505.659,0.27334452
2507.476,0.27251636
2509.295,0.27181538
2511.117,0.27147333
2512.942,0.27126174
2514.769,0.27093353
2516.598,0.27055204
2518.431,0.27021615
2520.266,0.27005607
2522.103,0.27000714
2523.944,0.26949855
2525.787,0.26885165
2527.632,0.26861298
2529.48,0.26882257
2531.331,0.26908098
2533.185,0.26904955
2535.041,0.26907652
2536.9,0.2687115
2538.762,0.26807713
2540.627,0.26838619
2542.494,0.26910521
2544.364,0.26881024
2546.236,0.26875269
2548.112,0.26914282
2549.99,0.2695307
2551.87,0.26997099
2553.754,0.26899132
2555.64,0.2675613
2557.529,0.2675283
2559.421,0.2699259
2561.316,0.27360842
2563.213,0.27361198
2565.113,0.26986633
2567.016,0.26805164
2568.922,0.26853737
2570.831,0.26889771
2572.742,0.26956033
2574.656,0.26996646
2576.573,0.2690084
2578.493,0.26750033
2580.416,0.26778941
2582.342,0.27017456
2584.27,0.27034217
2586.201,0.26864191
2588.135,0.26722364
2590.072,0.26498484
2592.012,0.26662755
2593.955,0.27472833
2595.9,0.27268874
2597.849,0.26355445
2599.8,0.26126897
2601.755,0.26302279
2603.712,0.26593294
2605.672,0.26642351
2607.635,0.26289632
2609.601,0.25957967
2611.57,0.25728732
2613.542,0.2566211
2615.517,0.25894471
2617.495,0.2606722
2619.475,0.25922681
2621.459,0.25507729
2623.446,0.25128932
2625.435,0.25114338
2627.428,0.25241687
2629.424,0.25332974
2631.423,0.25155003
2633.424,0.24688068
2635.429,0.24276119
2637.437,0.23976426
2639.447,0.2381961
2641.461,0.23698518
2643.478,0.23586587
2645.498,0.23475449
2647.521,0.23178555
2649.547,0.22927542
2651.576,0.22892315
2653.609,0.22785301
2655.644,0.22430512
2657.682,0.22119934
2659.724,0.21964673
2661.768,0.21744962
2663.816,0.21866799
2665.867,0.22181506
2667.921,0.21873388
2669.978,0.21511384
2672.038,0.2060832
2674.102,0.19864042
2676.168,0.19931169
2678.238,0.19526386
2680.311,0.18220539
2682.387,0.17331573
2684.467,0.16715695
2686.549,0.15816801
2688.635,0.14607014
2690.724,0.13522137
2692.816,0.12964201
2694.911,0.12239756
2697.01,0.10750208
2699.112,0.09673734
2701.217,0.09110127
2703.325,0.08556436
2705.437,0.08291236
2707.552,0.08747208
2709.67,0.09778043
2711.791,0.09881594
2713.916,0.08845376
2716.044,0.08207665
2718.175,0.08593515
2720.31,0.09513581
2722.448,0.09205874
2724.589,0.08275966
2726.734,0.07060487
2728.882,0.06008373
2731.034,0.05483863
2733.188,0.05253893
2735.347,0.04993403
2737.508,0.04718985
2739.673,0.04920111
2741.841,0.04606963
2744.013,0.03674832
2746.188,0.03217721
2748.367,0.03082876
2750.549,0.02990984
2752.734,0.03018018
2754.923,0.03269628
2757.115,0.03152234
2759.311,0.02739746
2761.51,0.02699691
2763.713,0.02845943
2765.919,0.02841048
2768.129,0.0280515
2770.342,0.02791217
2772.559,0.02683794
2774.779,0.02545239
2777.003,0.02493196
2779.23,0.02517089
2781.461,0.02554487
2783.696,0.02539154
2785.934,0.02588606
2788.175,0.02659612
2790.42,0.02517597
2792.669,0.02431667
2794.922,0.02456432
2797.178,0.02458458
2799.437,0.02456904
2801.7,0.02566015
2803.967,0.02693173
2806.238,0.0258679
2808.512,0.02463754
2810.789,0.02417227
2813.071,0.02391534
2815.356,0.02391612
2817.645,0.02419845
2819.937,0.02456432
2822.233,0.02418315
2824.533,0.02349318
2826.837,0.02362116
2829.144,0.02350282
2831.455,0.02308587
2833.77,0.02327651
2836.089,0.02337755
2838.411,0.0229565
2840.737,0.02244598
2843.067,0.02205174
2845.401,0.02161438
2847.739,0.02144513
2850.08,0.02177006
2852.425,0.02210284
2854.774,0.02226748
2857.127,0.0218999
2859.484,0.02127761
2861.844,0.02115791
2864.209,0.02130582
2866.577,0.02120321
2868.949,0.02081382
2871.325,0.02071848
2873.705,0.02071882
2876.089,0.0203247
2878.477,0.02016417
2880.869,0.02024464
2883.265,0.01993297
2885.664,0.01977402
2888.068,0.02001298
2890.476,0.02017543
2892.887,0.01989702
2895.303,0.01950087
2897.723,0.01930584
2900.146,0.01921245
2902.574,0.01908797
2905.006,0.01907088
2907.441,0.01910164
2909.881,0.01889642
2912.325,0.01871738
2914.773,0.01883708
2917.225,0.019096
2919.681,0.01920125
2922.142,0.01933807
2924.606,0.01933595
2927.075,0.01885472
2929.547,0.01874795
2932.024,0.01885537
2934.505,0.0187536
2936.99,0.018777
2939.479,0.01884114
2941.973,0.01890441
2944.471,0.01925515
2946.973,0.01957349
2949.479,0.01927972
2951.989,0.01891127
2954.504,0.01917976
2957.023,0.01921075
2959.546,0.01886997
2962.073,0.01876067
2964.605,0.01892658
2967.141,0.01906154
2969.681,0.01900803
2972.226,0.01914585
2974.775,0.01969898
2977.328,0.01973914
2979.886,0.01916769
2982.448,0.01885072
2985.015,0.01897773
2987.586,0.01921587
2990.161,0.01958715
2992.74,0.01987156
2995.324,0.01956266
2997.913,0.01937492
3000.506,0.01949219
3003.103,0.01971547
3005.705,0.01995707
3008.312,0.01986078
3010.922,0.01966356
3013.538,0.01991605
3016.158,0.02025329
3018.782,0.02019705
3021.411,0.02021301
3024.044,0.02019394
3026.683,0.02013218
3029.325,0.02078365
3031.972,0.02188893
3034.624,0.02196124
3037.281,0.021129
3039.942,0.02091643
3042.607,0.02138257
3045.278,0.02173088
3047.953,0.02144912
3050.632,0.02122759
3053.317,0.02122754
3056.006,0.02120144
3058.7,0.0215723
3061.398,0.02204586
3064.101,0.02248845
3066.809,0.02274893
3069.522,0.02235161
3072.239,0.02201602
3074.962,0.02198102
3077.689,0.02205539
3080.421,0.02237933
3083.157,0.02274724
3085.899,0.02321484
3088.645,0.0234582
3091.396,0.02327653
3094.153,0.02319878
3096.914,0.02343936
3099.679,0.02407977
3102.45,0.02440822
3105.226,0.02405363
3108.007,0.02388149
3110.792,0.02387727
3113.583,0.02404165
3116.378,0.02441966
3119.179,0.02459728
3121.985,0.02473812
3124.795,0.0249596
3127.611,0.02511439
3130.431,0.02534635
3133.257,0.02559617
3136.088,0.02591379
3138.924,0.02629547
3141.765,0.02659238
3144.611,0.02686662
3147.462,0.02725069
3150.319,0.02765512
3153.18,0.02802881
3156.047,0.02833886
3158.919,0.0287434
3161.796,0.02931689
3164.678,0.02977912
3167.566,0.03028146
3170.458,0.03088377
3173.356,0.03137855
3176.26,0.03212872
3179.168,0.03370281
3182.082,0.03487556
3185.001,0.03458795
3187.926,0.03446999
3190.856,0.03523451
3193.791,0.03639028
3196.731,0.03709282
3199.677,0.03715485
3202.629,0.03787449
3205.585,0.03885341
3208.548,0.03933348
3211.515,0.04077879
3214.488,0.04353705
3217.467,0.04529068
3220.451,0.04478636
3223.441,0.04425454
3226.436,0.04505974
3229.437,0.04552445
3232.443,0.04599454
3235.455,0.04708553
3238.472,0.04776507
3241.495,0.04868933
3244.523,0.05027341
3247.558,0.05164332
3250.598,0.05309524
3253.643,0.05484454
3256.694,0.05641085
3259.751,0.05675781
3262.814,0.05610936
3265.882,0.05669296
3268.956,0.05850371
3272.036,0.05962727
3275.122,0.05991779
3278.213,0.06061894
3281.31,0.0619147
3284.413,0.06338056
3287.522,0.06484597
3290.637,0.06610198
3293.757,0.06790107
3296.884,0.06981942
3300.016,0.07028292
3303.155,0.0708092
3306.299,0.07227238
3309.449,0.07321999
3312.605,0.07420143
3315.767,0.0757614
3318.936,0.07719366
3322.11,0.07881579
3325.29,0.08127083
3328.476,0.08382343
3331.669,0.08464721
3334.867,0.08425591
3338.072,0.08489599
3341.282,0.08656289
3344.499,0.0883244
3347.722,0.09003422
3350.952,0.09189482
3354.187,0.09313864
3357.429,0.09365661
3360.677,0.09489012
3363.931,0.0968823
3367.191,0.09855638
3370.458,0.09970839
3373.731,0.1008021
3377.01,0.10201543
3380.296,0.10343537
3383.588,0.10509498
3386.886,0.10692631
3390.191,0.10864828
3393.502,0.11060471
3396.82,0.11295002
3400.144,0.11484923
3403.475,0.11686081
3406.812,0.11883576
3410.156,0.11951085
3413.506,0.11998984
3416.862,0.12136305
3420.226,0.12362351
3423.596,0.12649053
3426.972,0.12863114
3430.355,0.13021276
3433.745,0.13230989
3437.141,0.13504635
3440.545,0.1386121
3443.954,0.14138929
3447.371,0.14219462
3450.794,0.14308276
3454.224,0.14496489
3457.661,0.1469555
3461.105,0.14913304
3464.556,0.15141759
3468.013,0.15315015
3471.477,0.15457428
3474.948,0.15616016
3478.426,0.15799052
3481.911,0.15993126
3485.403,0.1618075
3488.902,0.16445499
3492.408,0.16703662
3495.921,0.16785147
3499.441,0.16847533
3502.968,0.17011953
3506.502,0.17231902
3510.043,0.17457816
3513.592,0.1766632
3517.147,0.17902339
3520.71,0.18168409
3524.28,0.18427101
3527.857,0.18638142
3531.441,0.18892872
3535.032,0.19195872
3538.631,0.19372416
3542.237,0.19474986
3545.851,0.1963372
3549.471,0.19843612
3553.099,0.20063936
3556.735,0.2026425
3560.378,0.20454426
3564.028,0.20659388
3567.686,0.2089401
3571.351,0.21120722
3575.024,0.21304562
3578.704,0.21486155
3582.392,0.21701083
3586.088,0.21921768
3589.791,0.22096297
3593.501,0.22263676
3597.22,0.22455624
3600.946,0.22595596
3604.679,0.22718314
3608.421,0.22882706
3612.17,0.23084034
3615.926,0.23297005
3619.691,0.23453363
3623.463,0.23588363
3627.244,0.2374363
3631.032,0.23899454
3634.828,0.24051241
3638.632,0.2421976
3642.444,0.24399377
3646.263,0.24561135
3650.091,0.24734566
3653.927,0.24900618
3657.771,0.25026743
3661.623,0.25162641
3665.483,0.25324146
3669.351,0.25492328
3673.227,0.25662797
3677.111,0.25845649
3681.004,0.26042792
3684.905,0.26206224
3688.814,0.26332153
3692.731,0.26465636
3696.656,0.26611109
3700.59,0.26756341
3704.532,0.26913436
3708.483,0.27085209
3712.442,0.27267177
3716.409,0.27433207
3720.385,0.27568941
3724.37,0.27707209
3728.362,0.27840948
3732.364,0.27971285
3736.374,0.28113256
3740.392,0.28263943
3744.419,0.28416575
3748.455,0.28562063
3752.499,0.28697988
3756.553,0.28819209
3760.614,0.28946168
3764.685,0.29088631
3768.764,0.29219313
3772.853,0.29336459
3776.95,0.29455256
3781.056,0.2957776
3785.17,0.29689597
3789.294,0.29789109
3793.427,0.29888406
3797.568,0.2999684
3801.719,0.30115139
3805.879,0.30219504
3810.048,0.30317985
3814.225,0.30414913
3818.412,0.30500992
3822.609,0.30587286
3826.814,0.30673404
3831.029,0.30757951
3835.252,0.30837866
3839.486,0.30902596
3843.728,0.30967841
3847.98,0.31043612
3852.241,0.31118878
3856.512,0.31196831
3860.792,0.31258302
3865.081,0.31310482
3869.38,0.31378632
3873.689,0.31439681
3878.007,0.3149053
3882.334,0.31556129
3886.672,0.31634523
3891.019,0.31705386
3895.375,0.31761253
3899.742,0.31794303
3904.118,0.31827487
3908.504,0.31887519
3912.9,0.31944008
3917.305,0.31996241
3921.721,0.3205716
3926.146,0.32086402
3930.581,0.32094152
3935.027,0.32119336
3939.482,0.32152248
3943.948,0.3217971
3948.423,0.32204957
3952.909,0.32231076
3957.405,0.32250197
3961.911,0.32277412
3966.427,0.32317497
3970.954,0.32359243
3975.491,0.32398082
3980.038,0.32419245
3984.595,0.32428518
3989.163,0.32442206
3993.742,0.32461392
3998.33,0.32463845
4002.93,0.32449223
4007.54,0.32452499
4012.16,0.32467897
4016.791,0.3248177
4021.433,0.32496365
4026.086,0.32505934
4030.749,0.32516507
4035.423,0.32521961
4040.108,0.32519077
4044.804,0.325254
4049.51,0.32544459
4054.228,0.32570752
4058.956,0.32604562
4063.695,0.32619944
4068.446,0.32627971
4073.207,0.3265313
4077.98,0.3266086
4082.764,0.32665863
4087.559,0.32695414
4092.365,0.32735312
4097.183,0.32767938
4102.012,0.32799067
4106.852,0.32853568
4111.703,0.32925808
4116.566,0.32992962
4121.441,0.3303921
4126.327,0.33071995
4131.224,0.33122515
4136.133,0.33194219
4141.054,0.33265343
4145.987,0.33330451
4150.931,0.33398561
4155.887,0.33489111
4160.854,0.33574475
4165.834,0.33624016
4170.826,0.33664388
4175.829,0.33716563
4180.844,0.33786347
4185.872,0.3388751
4190.911,0.34074381
4195.963,0.3444107
4201.026,0.35129857
4206.102,0.36256551
4211.19,0.37767751
4216.291,0.39470219
4221.404,0.41160299
4226.529,0.42683327
4231.666,0.43856836
4236.816,0.4453088
4241.979,0.44461684
4247.154,0.43428034
4252.341,0.41296095
4257.542,0.39663151
4262.754,0.40198117
4267.98,0.4191063
4273.219,0.42675423
4278.47,0.42712782
4283.734,0.42664737
4289.011,0.42665253
4294.301,0.42493214
4299.604,0.42078323
4304.92,0.41741755
4310.25,0.41328723
4315.592,0.40677212
4320.948,0.40068531
4326.317,0.3962741
4331.699,0.39212716
4337.095,0.38839709
4342.504,0.38571778
4347.926,0.38389936
4353.362,0.38280107
4358.811,0.38238098
4364.275,0.3825053
4369.751,0.38279207
4375.242,0.38309939
4380.746,0.38384399
4386.264,0.38527874
4391.796,0.38701041
4397.342,0.38869609
4402.902,0.39023591
4408.476,0.39165497
4414.064,0.39315229
4419.666,0.39452674
4425.282,0.39578038
4430.913,0.39720815
4436.558,0.39859087
4442.217,0.39981163
4447.891,0.40091222
4453.579,0.40206006
4459.281,0.40340215
4464.998,0.40479467
4470.73,0.4059776
4476.477,0.40697568
4482.238,0.40806139
4488.014,0.40925784
4493.805,0.41055364
4499.611,0.41180839
4505.431,0.41273119
4511.267,0.41364395
4517.118,0.41509001
4522.984,0.416625
4528.865,0.4179794
4534.762,0.41951452
4540.674,0.42091959
4546.601,0.42179405
4552.543,0.422761
4558.502,0.42420285
4564.475,0.42554054
4570.465,0.42696281
4576.47,0.42849087
4582.491,0.42982425
4588.527,0.43133105
4594.58,0.43274063
4600.648,0.43380132
4606.732,0.43495402
4612.833,0.43648602
4618.949,0.43808687
4625.082,0.43964866
4631.231,0.44131306
4637.397,0.4427996
4643.578,0.44393628
4649.777,0.44514043
4655.991,0.44681793
4662.223,0.44864108
4668.471,0.45015378
4674.735,0.45171682
4681.017,0.45379315
4687.315,0.45567125
4693.63,0.45709741
4699.962,0.45901588
4706.312,0.46102191
4712.678,0.46267913
4719.062,0.46448388
4725.463,0.46628529
4731.881,0.46785109
4738.316,0.46946595
4744.769,0.47131667
4751.24,0.47328143
4757.728,0.4752178
4764.234,0.47707312
4770.758,0.47916013
4777.299,0.48151615
4783.859,0.48373496
4790.436,0.48544176
4797.032,0.48650504
4803.645,0.48737076
4810.277,0.48871122
4816.927,0.49051863
4823.596,0.49217801
4830.283,0.49362975
4836.988,0.49596848
4843.712,0.49831455
4850.455,0.49926137
4857.216,0.50013771
4863.996,0.50155827
4870.795,0.5031062
4877.613,0.50461509
4884.451,0.50608811
4891.307,0.50803993
4898.182,0.5099253
4905.077,0.51059354
4911.991,0.51094154
4918.925,0.51186432
4925.878,0.51308916
4932.851,0.51452084
4939.844,0.51594517
4946.856,0.51806984
4953.888,0.52141228
4960.941,0.52261906
4968.013,0.52143488
4975.105,0.52167356
4982.218,0.52282785
4989.351,0.52382766
4996.504,0.52528038
5003.678,0.52650136
5010.872,0.52939065
5018.087,0.53461591
5025.323,0.53596487
5032.58,0.53376774
5039.857,0.53324186
5047.156,0.53432346
5054.475,0.53580734
5061.816,0.53733892
5069.179,0.53899702
5076.562,0.54280903
5083.967,0.54646471
5091.394,0.54596648
5098.842,0.5455485
5106.312,0.54723504
5113.804,0.54885451
5121.318,0.54988015
5128.854,0.55109384
5136.412,0.55544962
5143.992,0.56274476
5151.595,0.56313793
5159.22,0.55814343
5166.868,0.55783836
5174.538,0.55977935
5182.231,0.56063377
5189.947,0.56411343
5197.686,0.57062821
5205.448,0.57619503
5213.233,0.57820773
5221.041,0.57332519
5228.873,0.57111894
5236.728,0.57435122
5244.607,0.57355508
5252.51,0.571784
5260.436,0.57219761
5268.386,0.5749309
5276.36,0.57802387
5284.358,0.58181106
5292.381,0.5850502
5300.428,0.58177211
5308.499,0.57881451
5316.595,0.57969036
5324.715,0.58076832
5332.86,0.58213897
5341.031,0.59294607
5349.226,0.60845136
5357.446,0.60347678
5365.692,0.59175484
5373.962,0.59117704
5382.259,0.59306487
5390.581,0.59415236
5398.928,0.59715554
5407.302,0.60624049
5415.701,0.62471107
5424.127,0.63186921
5432.579,0.61935265
5441.057,0.6150662
5449.561,0.62167173
5458.092,0.63714713
5466.65,0.65497173
5475.234,0.65829468
5483.846,0.65559766
5492.484,0.65437006
5501.15,0.66322883
5509.843,0.68027507
5518.564,0.70513847
5527.312,0.73133962
5536.087,0.76192448
5544.891,0.83300233
5553.723,0.8967181
5562.582,0.82302794
5571.47,0.59368233
5580.387,0.45057747
5589.332,0.42621253
5598.305,0.43548471
5607.307,0.45520493
5616.339,0.47620196
5625.399,0.49475342
5634.489,0.51453481
5643.607,0.53060186
5652.756,0.53483287
5661.934,0.53630037
5671.142,0.54436712
5680.379,0.55249592
5689.647,0.55446027
5698.945,0.55840123
5708.274,0.5701693
5717.633,0.57771134
5727.022,0.57721856
5736.443,0.57936344
5745.894,0.58256228
5755.377,0.59102733
5764.89,0.6024571
5774.436,0.59678486
5784.012,0.58534742
5793.621,0.58227411
5803.262,0.58864332
5812.934,0.60832116
5822.639,0.62333237
5832.376,0.61095637
5842.146,0.59940257
5851.948,0.60635854
5861.783,0.61916616
5871.652,0.63421312
5881.553,0.64767617
5891.488,0.6401682
5901.457,0.62093009
5911.459,0.61415066
5921.495,0.62691469
5931.565,0.64961902
5941.67,0.64575509
5951.809,0.62945906
5961.982,0.63335391
5972.19,0.64253083
5982.433,0.64784924
5992.711,0.64139254
6003.025,0.63398701
6013.374,0.63490421
6023.759,0.63098468
6034.179,0.64941448
6044.636,0.67845964
6055.129,0.67187269
6065.658,0.66797279
6076.224,0.65929307
6086.826,0.64235674
6097.466,0.65365899
6108.143,0.67379655
6118.857,0.66228668
6129.609,0.64993941
6140.398,0.65715006
6151.226,0.66512863
6162.091,0.6644483
6172.996,0.66905948
6183.938,0.67456523
6194.92,0.66548012
6205.94,0.66234574
6217.0,0.66560091
6228.099,0.66636963
6239.237,0.66741261
6250.416,0.6686813
6261.635,0.6717575
6272.893,0.67398739
6284.193,0.67442605
6295.533,0.67541247
6306.914,0.67702939
6318.336,0.68045193
6329.799,0.69441311
6341.304,0.70449855
6352.851,0.70088266
6364.44,0.70533363
6376.071,0.70557714
6387.745,0.70430104
6399.461,0.7294795
6411.221,0.75527856
6423.023,0.73721475
6434.869,0.71805988
6446.759,0.71423432
6458.693,0.7193589
6470.671,0.74055085
6482.693,0.76256947
6494.76,0.75082269
6506.872,0.73541671
6519.029,0.7334877
6531.231,0.73128188
6543.48,0.73867418
6555.774,0.7534734
6568.114,0.76187675
6580.501,0.75913106
6592.934,0.75040174
6605.415,0.74693958
6617.943,0.7641604
6630.518,0.77854533
6643.141,0.75391364
6655.812,0.74063329
6668.532,0.74982144
6681.3,0.74745999
6694.117,0.74717052
6706.983,0.75754304
6719.899,0.75095797
6732.864,0.73867871
6745.879,0.73782632
6758.945,0.74574905
6772.062,0.76205456
6785.229,0.76619228
6798.448,0.75122345
6811.718,0.74840646
6825.039,0.75070099
6838.413,0.75676509
6851.84,0.77630098
6865.319,0.77049936
6878.851,0.75179794
6892.437,0.7505093
6906.076,0.75028663
6919.769,0.74486751
6933.517,0.74807619
6947.319,0.76178652
6961.176,0.76360251
6975.089,0.75684319
6989.057,0.7562549
7003.081,0.75661187
7017.161,0.76065243
7031.298,0.77125498
7045.492,0.77299493
7059.743,0.7622928
7074.052,0.75735532
7088.419,0.75931807
7102.845,0.76300266
7117.329,0.76573527
7131.872,0.77056517
7146.475,0.77883023
7161.137,0.77922599
7175.86,0.77336011
7190.643,0.77501159
7205.487,0.7771701
7220.393,0.77352407
7235.36,0.77349971
7250.39,0.77849518
7265.481,0.78351744
7280.636,0.78269997
7295.854,0.78016611
7311.135,0.78316077
7326.481,0.78914096
7341.891,0.78833692
7357.366,0.78403128
7372.906,0.78361206
7388.512,0.78425252
7404.184,0.78501129
7419.922,0.78574682
7435.728,0.78927611
7451.601,0.79550189
7467.541,0.79590741
7483.55,0.79197836
7499.628,0.79101237
7515.774,0.79205792
7531.99,0.79312405
7548.277,0.79493964
7564.633,0.79767452
7581.061,0.79941277
7597.56,0.79993559
7614.131,0.80011236
7630.774,0.80030893
7647.491,0.80098747
7664.28,0.80173624
7681.143,0.80258676
7698.08,0.80347524
7715.093,0.80409455
7732.18,0.80490929
7749.343,0.80581932
7766.583,0.80620653
7783.899,0.80664131
7801.292,0.80741234
7818.764,0.80811233
7836.313,0.80914043
7853.942,0.81051824
7871.649,0.81148183
7889.437,0.81228293
7907.305,0.81359332
7925.254,0.81490068
7943.285,0.81562615
7961.398,0.81615916
7979.594,0.8169204
7997.872,0.81808714
8016.235,0.81941894
8034.682,0.82037858
8053.214,0.82126216
8071.832,0.82230662
8090.535,0.82317711
8109.326,0.82393909
8128.204,0.8247836
8147.169,0.8256601
8166.224,0.8263461
8185.368,0.82686798
8204.601,0.82736921
8223.925,0.82776064
8243.34,0.82803368
8262.847,0.82834167
8282.446,0.82868353
8302.139,0.8290412
8321.925,0.82957414
8341.805,0.83013106
8361.781,0.83069051
8381.852,0.83146859
8402.02,0.83221485
8422.285,0.83275462
8442.648,0.83311386
8463.109,0.83331921
8483.67,0.83362228
8504.331,0.83395397
8525.092,0.83426603
8545.955,0.83466971
8566.921,0.8350016
8587.989,0.83532207
8609.161,0.83578035
8630.437,0.83648534
8651.819,0.83725277
8673.307,0.83771627
8694.902,0.83815049
8716.604,0.838719
8738.415,0.83915854
8760.335,0.83949998
8782.365,0.83998477
8804.507,0.84063923
8826.76,0.84121902
8849.125,0.84167028
8871.604,0.84211694
8894.198,0.84253808
8916.907,0.84290608
8939.732,0.84316009
8962.673,0.84334237
8985.733,0.84364043
9008.912,0.84406826
9032.21,0.84452144
9055.629,0.84481426
9079.17,0.84503451
9102.833,0.84538628
9126.62,0.84570819
9150.531,0.84580118
9174.568,0.84586885
9198.731,0.84609927
9223.022,0.84631727
9247.441,0.84663117
9271.99,0.84712213
9296.669,0.84754745
9321.48,0.84787659
9346.423,0.84830689
9371.5,0.84891966
9396.712,0.84952998
9422.06,0.84995481
9447.545,0.85038948
9473.167,0.85099463
9498.929,0.85142445
9524.832,0.85163011
9550.876,0.85193341
9577.062,0.85238671
9603.393,0.85278399
9629.868,0.85303397
9656.49,0.85336053
9683.259,0.85382105
9710.176,0.85434534
9737.244,0.8549907
9764.463,0.85568003
9791.834,0.85631468
9819.359,0.85697097
9847.039,0.85764334
9874.875,0.85813884
9902.869,0.85849156
9931.022,0.85885631
9959.336,0.85928617
9987.811,0.85977038
10016.449,0.86015123
10045.252,0.86049464
10074.221,0.86090008
10103.357,0.8612239
10132.662,0.86160124
10162.137,0.86211117
10191.784,0.86260497
10221.604,0.86310237
10251.6,0.86352644
10281.771,0.86389049
10312.121,0.86432232
10342.65,0.86477498
10373.36,0.86514989
10404.253,0.86546842
10435.331,0.86587558
10466.594,0.86632274
10498.045,0.86662435
10529.686,0.86683267
10561.517,0.86712032
10593.542,0.86734433
10625.761,0.86750028
10658.176,0.86776543
10690.79,0.86796793
10723.604,0.86800542
10756.619,0.86780027
10789.839,0.86755059
10823.264,0.8674856
10856.896,0.86735786
10890.738,0.86712774
10924.791,0.86693928
10959.058,0.8667919
10993.541,0.86653773
11028.24,0.86608563
11063.16,0.86562044
11098.301,0.86545431
11133.665,0.86550418
11169.256,0.86549493
11205.075,0.86551618
11241.124,0.86559768
11277.405,0.86569041
11313.921,0.86592721
11350.675,0.86639206
11387.667,0.86705139
11424.901,0.86766767
11462.38,0.86815032
11500.105,0.86873134
11538.079,0.86938273
11576.304,0.86979256
11614.783,0.86991221
11653.518,0.87011351
11692.513,0.87047256
11731.769,0.87069935
11771.29,0.87083105
11811.077,0.87094626
11851.134,0.87115956
11891.464,0.8713618
11932.068,0.87152901
11972.951,0.87193109
12014.114,0.87213017
12055.562,0.87193064
12097.296,0.87153432
12139.32,0.87098825
12181.636,0.87052889
12224.249,0.87062148
12267.16,0.87122377
12310.373,0.87170901
12353.892,0.87207968
12397.719,0.87240198
12441.859,0.87259738
12486.313,0.87283197
12531.086,0.87295353
12576.18,0.87301805
12621.601,0.87313516
12667.35,0.87304882
12713.432,0.87286946
12759.85,0.87280812
12806.608,0.87305816
12853.71,0.8735064
12901.159,0.87378488
12948.96,0.87376541
12997.116,0.87335284
13045.631,0.87299738
13094.51,0.873184
13143.756,0.87330405
13193.373,0.87297202
13243.366,0.87275971
13293.74,0.87274338
13344.497,0.8727878
13395.644,0.87301022
13447.183,0.87330819
13499.121,0.87331915
13551.461,0.87296409
13604.208,0.87302786
13657.367,0.87348698
13710.943,0.87369024
13764.941,0.87379719
13819.365,0.8736887
13874.221,0.87300273
13929.515,0.87218967
13985.25,0.87150456
14041.433,0.87089321
14098.068,0.87021762
14155.163,0.86885444
14212.721,0.86735988
14270.749,0.86583432
14329.252,0.86338127
14388.237,0.86069479
14447.709,0.858686
14507.674,0.85639792
14568.139,0.85249945
14629.109,0.84744484
14690.592,0.84179429
14752.594,0.83511172
14815.121,0.82784261
14878.179,0.82283592
14941.777,0.81573376
15005.92,0.7999811
15070.616,0.78194102
15135.871,0.76341572
15201.695,0.74224006
15268.092,0.71555851
15335.072,0.68161634
15402.642,0.64590155
15470.81,0.6103495
15539.583,0.57063413
15608.97,0.52647997
15678.979,0.48430993
15749.619,0.44629111
15820.897,0.411511
15892.824,0.38101661
15965.407,0.35513965
