Database of Origin,University of Winnipeg Spectrophotometer Facility
Sample Description,16.11. Meteorites - HEDs 16.11.3. NASA samples (4) Bruker Vertex 70 FTIR spectrometer
Other Information,MIR Glowbar KBr Beam Splitter MCT cryo cooled Dectect.
Date Added,2018-07-23 23:49:05.445958

Data ID,FTIR_MET2_6_15      
Sample ID,Millbillillie
Mineral Name,Eucrite
Grain Size,45-90 um
Viewing Geometry,i30/ e0
Resolution,7.71cm-1

Wavelength
1672.316177,0.37536
1674.476792,0.37452
1676.642997,0.37374
1678.814814,0.37248
1680.992268,0.37131
1683.175374,0.3702
1685.364158,0.36901
1687.558643,0.36783
1689.758849,0.36628
1691.9648,0.36467
1694.176519,0.36359
1696.394027,0.36298
1698.61735,0.36208
1700.846507,0.36092
1703.081521,0.35991
1705.322418,0.35864
1707.569219,0.35686
1709.821949,0.35544
1712.08063,0.35441
1714.345286,0.35313
1716.615945,0.35195
1718.892624,0.35112
1721.175349,0.35052
1723.464146,0.35056
1725.759038,0.35038
1728.060049,0.3487
1730.367205,0.34679
1732.68053,0.34588
1735.000051,0.34526
1737.325788,0.34396
1739.657769,0.34232
1741.996018,0.34093
1744.340562,0.33969
1746.691425,0.33862
1749.048633,0.33805
1751.412211,0.33729
1753.78219,0.33605
1756.158588,0.33549
1758.541435,0.33494
1760.930758,0.33383
1763.326581,0.33272
1765.728933,0.33139
1768.13784,0.33037
1770.553328,0.32956
1772.975429,0.32832
1775.404162,0.32745
1777.839558,0.32694
1780.281645,0.32563
1782.73045,0.32391
1785.186001,0.32283
1787.648326,0.32231
1790.117454,0.32167
1792.593414,0.32066
1795.07623,0.31983
1797.565933,0.31925
1800.062552,0.31825
1802.566116,0.31705
1805.076653,0.31652
1807.594193,0.31623
1810.118766,0.31534
1812.650403,0.31428
1815.189129,0.3136
1817.734976,0.31261
1820.287974,0.31125
1822.848154,0.31096
1825.415545,0.31087
1827.990179,0.30957
1830.572085,0.30833
1833.161299,0.30802
1835.757844,0.30744
1838.361756,0.30638
1840.973065,0.30562
1843.591803,0.30518
1846.218001,0.30447
1848.851693,0.30358
1851.492909,0.30324
1854.141686,0.30283
1856.798049,0.30194
1859.462034,0.30086
1862.133675,0.30025
1864.813003,0.29985
1867.500053,0.29883
1870.194858,0.29784
1872.897451,0.29742
1875.60787,0.29741
1878.326142,0.29744
1881.052305,0.29687
1883.786392,0.29583
1886.528439,0.29521
1889.27848,0.29499
1892.03655,0.29438
1894.802685,0.2937
1897.576923,0.29299
1900.359294,0.29194
1903.149835,0.29107
1905.948585,0.29061
1908.755578,0.29056
1911.570851,0.29033
1914.394441,0.28951
1917.226385,0.28872
1920.066724,0.28808
1922.915487,0.2877
1925.772716,0.28769
1928.638449,0.28784
1931.512723,0.28774
1934.395578,0.28733
1937.28705,0.2867
1940.18718,0.28584
1943.09601,0.28491
1946.013571,0.28434
1948.939907,0.28426
1951.875057,0.28427
1954.819061,0.28401
1957.771959,0.28361
1960.733792,0.28329
1963.7046,0.28299
1966.684429,0.28261
1969.67331,0.28206
1972.671291,0.28179
1975.678411,0.28187
1978.694713,0.28164
1981.72024,0.28108
1984.755033,0.28087
1987.799135,0.28086
1990.852594,0.28071
1993.915443,0.28051
1996.987732,0.28012
2000.069502,0.27973
2003.160799,0.27957
2006.261667,0.27945
2009.37215,0.27922
2012.492292,0.27894
2015.622144,0.27855
2018.761742,0.27796
2021.911136,0.27764
2025.070371,0.27778
2028.239495,0.27815
2031.418553,0.27858
2034.607593,0.27883
2037.806661,0.27848
2041.015809,0.27779
2044.235076,0.27783
2047.464515,0.27849
2050.704173,0.27873
2053.9541,0.27844
2057.214344,0.27817
2060.484955,0.27809
2063.765981,0.27799
2067.057478,0.27773
2070.359486,0.27766
2073.672061,0.27788
2076.995253,0.27801
2080.329113,0.27815
2083.673693,0.27841
2087.029044,0.27856
2090.39522,0.27858
2093.772276,0.27874
2097.160256,0.27899
2100.559219,0.27905
2103.969217,0.27928
2107.390304,0.27967
2110.822536,0.27977
2114.265965,0.27979
2117.720647,0.27994
2121.186643,0.28004
2124.663997,0.2801
2128.152772,0.28045
2131.653022,0.28085
2135.164806,0.28096
2138.68818,0.28091
2142.223201,0.28107
2145.769927,0.28165
2149.328422,0.28235
2152.898735,0.28291
2156.480928,0.2832
2160.075063,0.28332
2163.681197,0.28362
2167.299393,0.28414
2170.929709,0.28476
2174.572208,0.28525
2178.226956,0.28556
2181.894004,0.28588
2185.57342,0.28614
2189.265266,0.28647
2192.969606,0.2871
2196.686503,0.28792
2200.416021,0.28852
2204.158225,0.28899
2207.913183,0.28964
2211.680953,0.29022
2215.461603,0.29068
2219.255201,0.29119
2223.061813,0.29181
2226.881507,0.2925
2230.714349,0.29321
2234.560407,0.29371
2238.419756,0.29413
2242.292454,0.29472
2246.178575,0.29544
2250.07819,0.29619
2253.991369,0.2971
2257.918183,0.2981
2261.858702,0.29887
2265.813,0.29937
2269.781154,0.29964
2273.763225,0.30016
2277.759293,0.3012
2281.769432,0.30218
2285.793716,0.303
2289.832221,0.30364
2293.88502,0.3042
2297.952192,0.30508
2302.033816,0.306
2306.129961,0.30679
2310.240709,0.30771
2314.366139,0.30867
2318.506328,0.3094
2322.661356,0.31014
2326.831304,0.31092
2331.016252,0.31159
2335.216286,0.31248
2339.431477,0.31355
2343.661913,0.31453
2347.907677,0.31536
2352.168852,0.31606
2356.445521,0.31674
2360.737771,0.3175
2365.045686,0.31848
2369.369358,0.31949
2373.708861,0.32045
2378.06429,0.32131
2382.435731,0.32213
2386.823273,0.32306
2391.227005,0.3241
2395.647017,0.32506
2400.0834,0.32573
2404.53625,0.32646
2409.005647,0.32756
2413.491691,0.32861
2417.994473,0.32945
2422.514088,0.33026
2427.050631,0.33109
2431.604196,0.33196
2436.17488,0.3329
2440.762785,0.3339
2445.367997,0.33482
2449.99062,0.33561
2454.630753,0.33635
2459.288496,0.33712
2463.963948,0.33815
2468.657212,0.33933
2473.368389,0.3403
2478.097588,0.34104
2482.844901,0.3416
2487.610438,0.34212
2492.394303,0.34278
2497.196603,0.3437
2502.017445,0.34472
2506.856937,0.34555
2511.715186,0.34612
2516.592308,0.3469
2521.488402,0.34788
2526.403583,0.34834
2531.337964,0.34835
2536.291658,0.34857
2541.264778,0.34911
2546.257439,0.34973
2551.269756,0.35074
2556.301852,0.35179
2561.353831,0.35177
2566.425818,0.35183
2571.517932,0.35258
2576.630293,0.35323
2581.763021,0.3539
2586.91624,0.35465
2592.090072,0.35525
2597.284647,0.35578
2602.500077,0.35643
2607.736495,0.35711
2612.994027,0.35823
2618.272802,0.35919
2623.572949,0.36027
2628.894597,0.36065
2634.237878,0.36076
2639.60293,0.36181
2644.989874,0.36254
2650.398851,0.3625
2655.829995,0.36231
2661.283444,0.36212
2666.759335,0.36155
2672.257807,0.36216
2677.779,0.36425
2683.323062,0.36548
2688.890121,0.36533
2694.480328,0.3647
2700.093828,0.36423
2705.730766,0.36311
2711.39129,0.36113
2717.075548,0.35946
2722.783689,0.35731
2728.515871,0.35626
2734.272233,0.35525
2740.052934,0.35177
2745.85813,0.34991
2751.687977,0.34924
2757.542631,0.34627
2763.422252,0.3421
2769.327,0.33905
2775.257043,0.33775
2781.212529,0.33566
2787.19363,0.33217
2793.200512,0.32977
2799.233341,0.32774
2805.292287,0.32547
2811.377519,0.32419
2817.489208,0.32287
2823.627536,0.32164
2829.79266,0.32064
2835.984766,0.31929
2842.20403,0.3185
2848.450631,0.31798
2854.72475,0.31722
2861.02657,0.31645
2867.356274,0.31564
2873.714055,0.31501
2880.100086,0.31456
2886.514561,0.31396
2892.957673,0.31324
2899.429613,0.31254
2905.930575,0.31202
2912.460755,0.31168
2919.020351,0.31111
2925.609569,0.31039
2932.228594,0.30992
2938.877637,0.30962
2945.556904,0.3094
2952.266599,0.30928
2959.006933,0.30941
2965.778115,0.3097
2972.580357,0.3099
2979.413883,0.31019
2986.278891,0.31058
2993.175608,0.31087
3000.104254,0.31111
3007.065051,0.31148
3014.058225,0.31185
3021.084,0.31224
3028.142607,0.31276
3035.234283,0.31306
3042.359245,0.31318
3049.517737,0.31339
3056.709994,0.31367
3063.936258,0.314
3071.196769,0.31453
3078.491772,0.31514
3085.821513,0.31583
3093.186251,0.31647
3100.586217,0.31675
3108.021674,0.31695
3115.492879,0.31758
3123.000089,0.3184
3130.543567,0.31906
3138.123574,0.31976
3145.740377,0.32055
3153.394256,0.32121
3161.08546,0.32187
3168.814274,0.32256
3176.580974,0.3232
3184.38584,0.32388
3192.229154,0.32448
3200.1112,0.32482
3208.032266,0.32512
3215.992653,0.32566
3223.992633,0.32629
3232.032514,0.32682
3240.112594,0.32728
3248.233176,0.32783
3256.394564,0.32832
3264.597068,0.32859
3272.840999,0.32892
3281.126681,0.32945
3289.454413,0.33001
3297.824524,0.33044
3306.237341,0.33076
3314.693189,0.33093
3323.192401,0.33089
3331.735311,0.33091
3340.322256,0.33087
3348.95359,0.33044
3357.629634,0.32983
3366.350748,0.32914
3375.117285,0.32862
3383.929601,0.32841
3392.788054,0.32786
3401.693008,0.32662
3410.64483,0.32556
3419.643903,0.32592
3428.690579,0.3276
3437.785247,0.3294
3446.928291,0.33065
3456.120099,0.33138
3465.36106,0.33162
3474.651571,0.33153
3483.99203,0.33122
3493.382855,0.33081
3502.824429,0.33114
3512.317177,0.3326
3521.861515,0.33403
3531.457866,0.33476
3541.106657,0.33516
3550.808317,0.33543
3560.563284,0.33559
3570.372009,0.33572
3580.234914,0.3359
3590.15246,0.33604
3600.125104,0.33607
3610.153306,0.33615
3620.237532,0.33614
3630.378252,0.33592
3640.575942,0.33581
3650.831097,0.33589
3661.144177,0.33605
3671.515689,0.33615
3681.946129,0.33613
3692.436003,0.33615
3702.985818,0.33632
3713.596091,0.33649
3724.267342,0.33644
3735.000113,0.33636
3745.79491,0.33658
3756.652285,0.33693
3767.572784,0.33713
3778.556959,0.33717
3789.605369,0.33716
3800.71858,0.33713
3811.897162,0.337
3823.141709,0.33683
3834.452778,0.33675
3845.830974,0.33663
3857.276898,0.33654
3868.791155,0.33644
3880.37436,0.33608
3892.027134,0.33568
3903.750106,0.33554
3915.543926,0.33552
3927.409209,0.3354
3939.346621,0.3352
3951.356822,0.33511
3963.44048,0.33514
3975.598271,0.33491
3987.830879,0.33443
4000.138997,0.33409
4012.523342,0.33386
4024.984593,0.33357
4037.523484,0.33345
4050.140742,0.33345
4062.837106,0.33327
4075.613322,0.33305
4088.470144,0.33293
4101.408338,0.33271
4114.428697,0.33244
4127.531971,0.33218
4140.718972,0.3319
4153.990505,0.33156
4167.347385,0.33159
4180.790439,0.33441
4194.320503,0.34622
4207.938425,0.37408
4221.64508,0.41767
4235.441304,0.44268
4249.327994,0.4291
4263.306045,0.41958
4277.376359,0.41811
4291.539855,0.40706
4305.79746,0.38677
4320.150116,0.36609
4334.598795,0.34968
4349.144426,0.33833
4363.788008,0.33135
4378.530532,0.32752
4393.373006,0.32594
4408.316449,0.32553
4423.361896,0.32499
4438.510393,0.32395
4453.763023,0.32274
4469.120824,0.32212
4484.584908,0.32205
4500.15638,0.32176
4515.836365,0.32111
4531.626,0.32026
4547.52644,0.31921
4563.538854,0.31768
4579.664452,0.31596
4595.904394,0.31452
4612.259923,0.31301
4628.732277,0.31094
4645.322713,0.30859
4662.032504,0.30642
4678.862943,0.30412
4695.815342,0.30153
4712.891054,0.29861
4730.091384,0.29539
4747.417723,0.29205
4764.871462,0.28892
4782.45401,0.2864
4800.1668,0.28454
4818.011283,0.28251
4835.988934,0.27998
4854.101273,0.27755
4872.349771,0.27536
4890.735994,0.27309
4909.261506,0.27082
4927.927896,0.26836
4946.736778,0.26565
4965.68979,0.26312
4984.788594,0.26093
5004.034903,0.25878
5023.430384,0.25662
5042.976803,0.2547
5062.675928,0.25295
5082.529556,0.25115
5102.539511,0.24969
5122.707649,0.24871
5143.03585,0.24768
5163.526056,0.24634
5184.180157,0.24449
5205.000154,0.24224
5225.988055,0.24047
5247.145898,0.23939
5268.475756,0.23863
5289.979735,0.23827
5311.659976,0.23884
5333.518684,0.24027
5355.558014,0.24196
5377.780242,0.24352
5400.187657,0.24461
5422.78258,0.24547
5445.567377,0.24674
5468.544451,0.24859
5491.716246,0.25063
5515.085278,0.25193
5538.654014,0.25186
5562.425058,0.25043
5586.401024,0.24832
5610.584574,0.24666
5634.978416,0.24525
5659.585305,0.24407
5684.408043,0.24315
5709.449517,0.24188
5734.712564,0.24048
5760.200171,0.23874
5785.915346,0.2371
5811.861151,0.23564
5838.040701,0.23377
5864.457171,0.23148
5891.11379,0.22753
5918.013883,0.22357
5945.160732,0.22013
5972.557781,0.21771
6000.208507,0.21693
6028.116449,0.21666
6056.285213,0.21559
6084.718472,0.21455
6113.41997,0.214
6142.393557,0.21358
6171.643046,0.21354
6201.172433,0.21392
6230.985758,0.21453
6261.087133,0.21516
6291.480755,0.21608
6322.1709,0.21733
6353.161929,0.21864
6384.458328,0.2195
6416.064553,0.21898
6447.985267,0.21818
6480.225188,0.21756
6512.789128,0.21622
6545.681997,0.21531
6578.908804,0.21474
6612.47466,0.21484
6646.384825,0.21571
6680.644535,0.21642
6715.259268,0.21719
6750.234571,0.21803
6785.576107,0.21804
6821.28966,0.21772
6857.381134,0.2176
6893.856559,0.21801
6930.722144,0.21855
6967.984085,0.21828
7005.648858,0.21753
7043.72303,0.21663
7082.213314,0.21622
7121.126567,0.21581
7160.469802,0.21456
7200.250183,0.21338
7240.47509,0.21249
7281.15191,0.21137
7322.288355,0.21007
7363.892259,0.20887
7405.971636,0.20753
7448.534685,0.20554
7491.589791,0.2036
7535.145539,0.20226
7579.210768,0.20082
7623.794353,0.19926
7668.905555,0.19786
7714.553795,0.19637
7760.74872,0.19465
7807.500211,0.1928
7854.818386,0.19092
7902.713612,0.189
7951.196573,0.18718
8000.278026,0.18567
8049.969186,0.18441
8100.281485,0.18327
8151.226643,0.18229
8202.816677,0.18154
8255.063908,0.18106
8307.980976,0.1807
8361.580914,0.18029
8415.876885,0.17991
8470.882607,0.17963
8526.612089,0.17931
8583.07971,0.17905
8640.300232,0.17875
8698.288814,0.17867
8757.061026,0.17932
8816.632938,0.18091
8877.020825,0.18358
8938.241648,0.18712
9000.312761,0.19072
9063.252001,0.1932
9127.077709,0.19393
9191.808745,0.19328
9257.464511,0.19187
9324.065051,0.18992
9391.630729,0.18795
9460.182767,0.18752
9529.742923,0.18889
9600.3336,0.19055
9671.977869,0.19131
9744.699495,0.19102
9818.522964,0.18943
9893.473606,0.18674
9969.577237,0.18398
10046.86077,0.18212
10125.35186,0.18143
10205.07902,0.18151
10286.0717,0.18207
10368.36026,0.18285
10451.97605,0.18326
10536.95157,0.18328
10623.32001,0.18295
10711.11603,0.1814
10800.37531,0.17871
10891.13475,0.17707
10983.43249,0.17894
11077.30797,0.18246
11172.80199,0.18389
11269.9569,0.1836
11368.81615,0.18273
11469.42513,0.18053
11571.83069,0.17739
11676.0814,0.17505
11782.22758,0.17369
11890.32139,0.17237
12000.41694,0.17112
12112.5705,0.17013
12226.84001,0.16901
12343.28609,0.16781
12461.97152,0.16693
12582.96151,0.16622
12706.32386,0.16548
12832.12902,0.16484
12960.45029,0.16428
13091.36408,0.1639
13224.94941,0.16352
13361.28907,0.16327
13500.46914,0.16386
13642.57932,0.16506
13787.71312,0.16607
13935.96807,0.16666
14087.44596,0.16687
14242.25324,0.16684
14400.50047,0.16697
14562.30382,0.16722
14727.78452,0.16716
14897.06937,0.16629
15070.29108,0.16361
15247.58859,0.16149
15429.10747,0.16154
15615.00054,0.16141
15805.42735,0.15961
16000.55605,0.15769
16200.56297,0.15733
16405.63335,0.15876
16615.96195,0.16162
16831.75363,0.16455
17053.22403,0.16636
17280.60061,0.16772
17514.12221,0.16968
17754.04165,0.17241
18000.62552,0.17471
18254.15542,0.17561
18514.92902,0.17554
18783.26128,0.17482
19059.48566,0.17443
19343.95592,0.17571
19637.04612,0.17801
19939.15447,0.18198
20250.70371,0.18468
20572.1434,0.18041
20903.95211,0.17352
21246.63979,0.16835
21600.75039,0.16519
21966.86522,0.16143
22345.60422,0.15651
22737.6323,0.15724
23143.66139,0.16394
23564.45516,0.16538
24000.83388,0.1577
24453.67973,0.15171
24923.94272,0.14736
25412.64804,0.13261
