Database of Origin,University of Winnipeg Spectrophotometer Facility
Sample Description,Lunar samples/ analogues and glasses - D and P 102F FTIR spectra (from PSF) NASA Apollo lunar samples
Other Information,diffuse gold puck 100 spectra averaged
Date Added,2018-07-23 21:03:11.591163

Data ID,FTIR_LNR_3_9        
Sample ID,apollo 12 ID# 12030 184 7
Grain Size,<1mm?
Viewing Geometry,i=30/ e=0
Resolution,3 cm-1
Composition,regolith sample

Wavelength
2.001142,0.161079674
2.002307,0.161078913
2.003474,0.161260207
2.004643,0.161024065
2.005812,0.160861309
2.006983,0.161055266
2.008155,0.161099223
2.009329,0.161338868
2.010504,0.161189696
2.01168,0.162106187
2.012858,0.161073758
2.014037,0.161394751
2.015217,0.161389594
2.016399,0.16112235
2.017582,0.161910217
2.018766,0.161243846
2.019952,0.161614091
2.021139,0.161355392
2.022328,0.161304001
2.023518,0.161022921
2.024709,0.161598218
2.025902,0.16152054
2.027096,0.161705343
2.028291,0.162202448
2.029488,0.16126961
2.030686,0.161662093
2.031886,0.162496912
2.033087,0.162063987
2.034289,0.161474371
2.035493,0.162386771
2.036698,0.162076536
2.037905,0.162219729
2.039113,0.16211496
2.040322,0.162784555
2.041533,0.162379741
2.042746,0.162730405
2.043959,0.162400903
2.045174,0.162831387
2.046391,0.162399497
2.047609,0.162766722
2.048828,0.162808917
2.050049,0.162599373
2.051271,0.162665478
2.052495,0.162672595
2.05372,0.16317012
2.054947,0.163373569
2.056175,0.163595352
2.057404,0.163435301
2.058635,0.163363573
2.059867,0.16405983
2.061101,0.163530572
2.062336,0.163988776
2.063573,0.163959833
2.064811,0.163765966
2.066051,0.164070603
2.067292,0.163812252
2.068534,0.163949852
2.069778,0.164200793
2.071024,0.164165708
2.072271,0.16388653
2.073519,0.163991292
2.074769,0.164622948
2.07602,0.16464847
2.077273,0.165255624
2.078528,0.164252729
2.079784,0.164564013
2.081041,0.164793142
2.0823,0.165274718
2.08356,0.165133995
2.084822,0.165717718
2.086085,0.165488193
2.08735,0.165561549
2.088617,0.16500631
2.089885,0.165630156
2.091154,0.165864236
2.092425,0.165976589
2.093697,0.165199484
2.094971,0.165888249
2.096247,0.166125206
2.097524,0.166388031
2.098803,0.166134151
2.100083,0.166842015
2.101364,0.166215086
2.102648,0.166536121
2.103932,0.166018841
2.105219,0.166032355
2.106506,0.165871741
2.107796,0.165567872
2.109087,0.16600326
2.110379,0.165665676
2.111673,0.165745517
2.112969,0.165500462
2.114266,0.164890972
2.115565,0.165813957
2.116865,0.165763084
2.118167,0.16574816
2.119471,0.166435762
2.120776,0.165347061
2.122082,0.165783459
2.123391,0.165496722
2.1247,0.166227825
2.126012,0.165293921
2.127325,0.166573269
2.12864,0.167266116
2.129956,0.166795556
2.131274,0.166665242
2.132593,0.166229975
2.133914,0.166471887
2.135237,0.166641923
2.136561,0.166580782
2.137887,0.166335151
2.139214,0.166885313
2.140544,0.166354789
2.141874,0.167347825
2.143207,0.166983663
2.144541,0.167416859
2.145876,0.166761776
2.147214,0.167649157
2.148553,0.167234423
2.149893,0.167343319
2.151235,0.167724509
2.152579,0.167530793
2.153925,0.167847391
2.155272,0.167518948
2.156621,0.168105902
2.157972,0.168262523
2.159324,0.168500537
2.160678,0.168446226
2.162033,0.169269059
2.16339,0.169144514
2.164749,0.169760098
2.16611,0.169187811
2.167472,0.169829799
2.168836,0.17062131
2.170202,0.169977029
2.171569,0.1710277
2.172938,0.170904276
2.174309,0.170877289
2.175682,0.170508315
2.177056,0.171374003
2.178432,0.171112713
2.179809,0.171019086
2.181189,0.171390682
2.18257,0.171684716
2.183952,0.171213024
2.185337,0.171947143
2.186723,0.17213196
2.188111,0.171865663
2.189501,0.172350767
2.190892,0.172070285
2.192285,0.171672963
2.19368,0.172397446
2.195077,0.171847882
2.196476,0.172871757
2.197876,0.172665613
2.199278,0.173226498
2.200682,0.172940064
2.202087,0.173164566
2.203494,0.173017887
2.204903,0.17346918
2.206314,0.173531447
2.207727,0.173329162
2.209141,0.173597096
2.210557,0.174177152
2.211975,0.173983074
2.213395,0.174075681
2.214817,0.174081065
2.21624,0.175027362
2.217665,0.174810089
2.219092,0.17484982
2.220521,0.175140758
2.221952,0.175062606
2.223384,0.174692482
2.224818,0.17542999
2.226254,0.174904147
2.227692,0.174691184
2.229132,0.175597234
2.230574,0.174683388
2.232017,0.174941572
2.233462,0.175699117
2.23491,0.17521551
2.236359,0.175722775
2.237809,0.175323399
2.239262,0.176636478
2.240717,0.176102191
2.242173,0.176400601
2.243631,0.17637442
2.245092,0.176357076
2.246554,0.176347942
2.248017,0.176327775
2.249483,0.176683465
2.250951,0.176963253
2.252421,0.176790758
2.253892,0.177126414
2.255365,0.177032525
2.256841,0.176980298
2.258318,0.177564051
2.259797,0.177240628
2.261278,0.177924522
2.262761,0.177935554
2.264246,0.17841151
2.265732,0.177698412
2.267221,0.177840144
2.268712,0.177876756
2.270204,0.17858876
2.271699,0.178398835
2.273195,0.178860429
2.274694,0.178706424
2.276194,0.178368068
2.277696,0.179154034
2.279201,0.179268137
2.280707,0.179726005
2.282215,0.180026412
2.283725,0.179669588
2.285237,0.180152152
2.286752,0.179365615
2.288268,0.180189255
2.289786,0.180754747
2.291306,0.180367834
2.292828,0.180976993
2.294352,0.181532625
2.295878,0.18072446
2.297406,0.180935555
2.298936,0.180889885
2.300468,0.181249694
2.302002,0.181601291
2.303539,0.181291887
2.305077,0.181799559
2.306617,0.182194505
2.308159,0.181601968
2.309703,0.182309471
2.31125,0.181276332
2.312798,0.182746789
2.314348,0.182834764
2.315901,0.182962489
2.317455,0.18259188
2.319012,0.182798375
2.320571,0.182820467
2.322131,0.182723087
2.323694,0.182953456
2.325259,0.183270742
2.326826,0.184113305
2.328395,0.184149843
2.329966,0.183810893
2.33154,0.183893843
2.333115,0.183899215
2.334692,0.184470064
2.336272,0.184028112
2.337854,0.183797357
2.339437,0.184237159
2.341023,0.184162127
2.342611,0.184286046
2.344201,0.184618087
2.345794,0.1845206
2.347388,0.184247132
2.348985,0.184663451
2.350583,0.184523474
2.352184,0.184285758
2.353787,0.184710861
2.355393,0.185377267
2.357,0.18473387
2.358609,0.185005473
2.360221,0.185164193
2.361835,0.184768372
2.363451,0.185464795
2.365069,0.185520128
2.36669,0.185696724
2.368312,0.185765287
2.369937,0.185789647
2.371564,0.186156747
2.373194,0.186208595
2.374825,0.186035924
2.376459,0.186700101
2.378095,0.186962486
2.379733,0.186811917
2.381373,0.187187778
2.383016,0.186941633
2.384661,0.187405617
2.386308,0.187587595
2.387957,0.187069554
2.389609,0.187472711
2.391263,0.187810648
2.392919,0.187402856
2.394577,0.187857035
2.396238,0.187610496
2.397901,0.187889017
2.399566,0.187732396
2.401233,0.188080647
2.402903,0.1876994
2.404575,0.187965612
2.40625,0.188046072
2.407926,0.18788253
2.409606,0.188615545
2.411287,0.188592101
2.412971,0.188684393
2.414657,0.188444592
2.416345,0.18908748
2.418036,0.188712518
2.419729,0.189467056
2.421424,0.189099492
2.423122,0.189208024
2.424822,0.188792287
2.426524,0.189843733
2.428229,0.190119279
2.429936,0.190090878
2.431646,0.190265215
2.433358,0.190576337
2.435072,0.190245126
2.436789,0.191022675
2.438508,0.190624216
2.440229,0.190896669
2.441953,0.190861447
2.443679,0.192072593
2.445408,0.191127015
2.447139,0.191478496
2.448873,0.191487657
2.450609,0.191583563
2.452347,0.191844004
2.454088,0.192164674
2.455831,0.19198059
2.457577,0.192442304
2.459325,0.192074352
2.461076,0.192629688
2.462829,0.192859406
2.464585,0.192666108
2.466343,0.192757389
2.468104,0.192711415
2.469867,0.192611067
2.471632,0.193512349
2.4734,0.193267934
2.475171,0.193673417
2.476944,0.193561453
2.47872,0.193812535
2.480498,0.193279439
2.482278,0.193821602
2.484062,0.193903145
2.485847,0.194054158
2.487636,0.194433001
2.489427,0.194438251
2.49122,0.194568414
2.493016,0.195188121
2.494814,0.195363445
2.496615,0.195683618
2.498419,0.195971951
2.500225,0.196306397
2.502034,0.196291322
2.503845,0.195978583
2.505659,0.196423594
2.507476,0.196765576
2.509295,0.195968106
2.511117,0.197144332
2.512942,0.19651143
2.514769,0.197388469
2.516598,0.197934481
2.518431,0.197832053
2.520266,0.197690989
2.522103,0.198380585
2.523944,0.198889013
2.525787,0.198443541
2.527632,0.198882628
2.52948,0.199021386
2.531331,0.200094449
2.533185,0.199771896
2.535041,0.200096137
2.5369,0.200494248
2.538762,0.19949849
2.540627,0.200365537
2.542494,0.20198737
2.544364,0.200898894
2.546236,0.200740782
2.548112,0.201910982
2.54999,0.201223264
2.55187,0.203990021
2.553754,0.201894157
2.55564,0.201611456
2.557529,0.201511593
2.559421,0.203226227
2.561316,0.206700052
2.563213,0.206534317
2.565113,0.204335917
2.567016,0.202259473
2.568922,0.20607633
2.570831,0.204003361
2.572742,0.206385372
2.574656,0.205571309
2.576573,0.205509564
2.578493,0.203665833
2.580416,0.204208747
2.582342,0.207891089
2.58427,0.208824057
2.586201,0.206366929
2.588135,0.207066066
2.590072,0.205330619
2.592012,0.204355271
2.593955,0.2171085
2.5959,0.214885699
2.597849,0.205145453
2.5998,0.206334724
2.601755,0.207201212
2.603712,0.209049858
2.605672,0.211966643
2.607635,0.209370874
2.609601,0.208542159
2.61157,0.206851682
2.613542,0.206941104
2.615517,0.210121675
2.617495,0.212294683
2.619475,0.210842876
2.621459,0.211799587
2.623446,0.205427953
2.625435,0.210976188
2.627428,0.210155431
2.629424,0.212714969
2.631423,0.212928349
2.633424,0.209729632
2.635429,0.209281204
2.637437,0.208046029
2.639447,0.208661413
2.641461,0.209380527
2.643478,0.20929166
2.645498,0.210173698
2.647521,0.209930295
2.649547,0.20814764
2.651576,0.210375969
2.653609,0.211387289
2.655644,0.210965909
2.657682,0.209626367
2.659724,0.211700034
2.661768,0.211617048
2.663816,0.21204613
2.665867,0.221491009
2.667921,0.214110578
2.669978,0.220760579
2.672038,0.216982647
2.674102,0.210569723
2.676168,0.217310417
2.678238,0.215636404
2.680311,0.211400994
2.682387,0.210455104
2.684467,0.212922824
2.686549,0.211975496
2.688635,0.211107536
2.690724,0.209432341
2.692816,0.212641657
2.694911,0.214625901
2.69701,0.210397374
2.699112,0.208333069
2.701217,0.20992472
2.703325,0.208225794
2.705437,0.206965236
2.707552,0.206810395
2.70967,0.209097152
2.711791,0.210047535
2.713916,0.203487685
2.716044,0.201502161
2.718175,0.20037511
2.72031,0.207092948
2.722448,0.201583714
2.724589,0.202003002
2.726734,0.198145461
2.728882,0.194812503
2.731034,0.193698901
2.733188,0.192284682
2.735347,0.193273256
2.737508,0.189790971
2.739673,0.192820295
2.741841,0.191782362
2.744013,0.187249218
2.746188,0.186900717
2.748367,0.186047761
2.750549,0.185585491
2.752734,0.185244817
2.754923,0.187665099
2.757115,0.187545576
2.759311,0.183933942
2.76151,0.183975275
2.763713,0.185059563
2.765919,0.1838075
2.768129,0.183323043
2.770342,0.18391483
2.772559,0.18327284
2.774779,0.181837592
2.777003,0.181921689
2.77923,0.181670839
2.781461,0.181977165
2.783696,0.18149692
2.785934,0.181433398
2.788175,0.183260691
2.79042,0.181711065
2.792669,0.18070272
2.794922,0.181125763
2.797178,0.180984556
2.799437,0.180520068
2.8017,0.180868401
2.803967,0.182242558
2.806238,0.180464436
2.808512,0.180443724
2.810789,0.179836747
2.813071,0.179798584
2.815356,0.180463192
2.817645,0.179861313
2.819937,0.180476564
2.822233,0.179808469
2.824533,0.179618837
2.826837,0.17991285
2.829144,0.179853801
2.831455,0.179141187
2.83377,0.179837035
2.836089,0.180164103
2.838411,0.180123233
2.840737,0.17902694
2.843067,0.179682919
2.845401,0.179745245
2.847739,0.17967275
2.85008,0.179432429
2.852425,0.179216857
2.854774,0.179385196
2.857127,0.179118921
2.859484,0.179644314
2.861844,0.180473865
2.864209,0.179228815
2.866577,0.179919776
2.868949,0.179580376
2.871325,0.178633978
2.873705,0.180085975
2.876089,0.178675902
2.878477,0.179305446
2.880869,0.179113595
2.883265,0.178744595
2.885664,0.178360338
2.888068,0.17896099
2.890476,0.180900564
2.892887,0.179179624
2.895303,0.178440191
2.897723,0.178807716
2.900146,0.17837619
2.902574,0.178278136
2.905006,0.178281926
2.907441,0.178296151
2.909881,0.178698444
2.912325,0.178506828
2.914773,0.178070468
2.917225,0.180335327
2.919681,0.18002214
2.922142,0.178597237
2.924606,0.17904591
2.927075,0.178095916
2.929547,0.177928203
2.932024,0.1780047
2.934505,0.178424883
2.93699,0.17962119
2.939479,0.178767152
2.941973,0.178998486
2.944471,0.178573293
2.946973,0.181330201
2.949479,0.181578664
2.951989,0.178043789
2.954504,0.18129514
2.957023,0.180705727
2.959546,0.179224268
2.962073,0.178930068
2.964605,0.179268332
2.967141,0.180390345
2.969681,0.180197188
2.972226,0.179901322
2.974775,0.182041933
2.977328,0.182724852
2.979886,0.18008949
2.982448,0.18062802
2.985015,0.180659618
2.987586,0.180729121
2.990161,0.181039464
2.99274,0.182969874
2.995324,0.181072367
2.997913,0.182356925
3.000506,0.182294203
3.003103,0.183642057
3.005705,0.18273198
3.008312,0.181776547
3.010922,0.182508209
3.013538,0.183069586
3.016158,0.183374786
3.018782,0.183138072
3.021411,0.183587324
3.024044,0.183767421
3.026683,0.183896627
3.029325,0.184594917
3.031972,0.187924821
3.034624,0.187844199
3.037281,0.185131881
3.039942,0.186022721
3.042607,0.185735331
3.045278,0.188160671
3.047953,0.186964538
3.050632,0.186544775
3.053317,0.186311997
3.056006,0.187213191
3.0587,0.186575226
3.061398,0.187561094
3.064101,0.188922235
3.066809,0.189469291
3.069522,0.187402014
3.072239,0.188227729
3.074962,0.188247593
3.077689,0.188445674
3.080421,0.189234938
3.083157,0.189303076
3.085899,0.189479102
3.088645,0.190249057
3.091396,0.189276288
3.094153,0.189442914
3.096914,0.189162693
3.099679,0.190708987
3.10245,0.191209431
3.105226,0.189883969
3.108007,0.189994107
3.110792,0.189995155
3.113583,0.190229607
3.116378,0.189996198
3.119179,0.190471739
3.121985,0.190097087
3.124795,0.189832418
3.127611,0.190091031
3.130431,0.190267562
3.133257,0.189696678
3.136088,0.190145834
3.138924,0.19036667
3.141765,0.190542008
3.144611,0.190575838
3.147462,0.190811049
3.150319,0.191145219
3.15318,0.190866832
3.156047,0.191658621
3.158919,0.191371361
3.161796,0.191567815
3.164678,0.191829012
3.167566,0.191679885
3.170458,0.192359158
3.173356,0.192520784
3.17626,0.1926107
3.179168,0.193867368
3.182082,0.195924989
3.185001,0.193340492
3.187926,0.194075884
3.190856,0.193305433
3.193791,0.195220904
3.196731,0.195143312
3.199677,0.19400488
3.202629,0.195021774
3.205585,0.195091835
3.208548,0.19476652
3.211515,0.195502237
3.214488,0.198621847
3.217467,0.199387886
3.220451,0.197916146
3.223441,0.196190313
3.226436,0.198682298
3.229437,0.196225063
3.232443,0.197288518
3.235455,0.19770747
3.238472,0.197393307
3.241495,0.196950978
3.244523,0.199208906
3.247558,0.198713877
3.250598,0.199728136
3.253643,0.200533662
3.256694,0.201982573
3.259751,0.201497976
3.262814,0.199154357
3.265882,0.199312606
3.268956,0.200631446
3.272036,0.201158245
3.275122,0.199852477
3.278213,0.19970161
3.28131,0.200555684
3.284413,0.200885191
3.287522,0.201933576
3.290637,0.201568091
3.293757,0.201964263
3.296884,0.204571725
3.300016,0.202818245
3.303155,0.202410711
3.306299,0.203794328
3.309449,0.202960307
3.312605,0.202729384
3.315767,0.203575878
3.318936,0.203531447
3.32211,0.203285766
3.32529,0.204223873
3.328476,0.206660116
3.331669,0.206309688
3.334867,0.203382617
3.338072,0.203618768
3.341282,0.203251453
3.344499,0.204656184
3.347722,0.204590999
3.350952,0.205711055
3.354187,0.20593766
3.357429,0.204396842
3.360677,0.204891323
3.363931,0.205783187
3.367191,0.20657682
3.370458,0.205485153
3.373731,0.205437669
3.37701,0.204552706
3.380296,0.205198762
3.383588,0.20538439
3.386886,0.206697862
3.390191,0.206365791
3.393502,0.207043226
3.39682,0.208283648
3.400144,0.208227929
3.403475,0.208761619
3.406812,0.210440039
3.410156,0.208725902
3.413506,0.208754032
3.416862,0.208605326
3.420226,0.20893188
3.423596,0.211302454
3.426972,0.211679808
3.430355,0.211035638
3.433745,0.212195931
3.437141,0.21263693
3.440545,0.214733835
3.443954,0.217717051
3.447371,0.214862032
3.450794,0.214290825
3.454224,0.215153543
3.457661,0.215343008
3.461105,0.215835669
3.464556,0.21722228
3.468013,0.216495659
3.471477,0.216855124
3.474948,0.217454629
3.478426,0.217950936
3.481911,0.218452508
3.485403,0.218483438
3.488902,0.219935528
3.492408,0.222725084
3.495921,0.220339674
3.499441,0.220819682
3.502968,0.221215425
3.506502,0.222043556
3.510043,0.223420776
3.513592,0.223127261
3.517147,0.223820278
3.52071,0.224797832
3.52428,0.225646111
3.527857,0.225229016
3.531441,0.226546826
3.535032,0.229187161
3.538631,0.228052048
3.542237,0.227834709
3.545851,0.228641932
3.549471,0.228868457
3.553099,0.229732886
3.556735,0.230392352
3.560378,0.231088085
3.564028,0.231615174
3.567686,0.232131203
3.571351,0.233504074
3.575024,0.233944442
3.578704,0.233964854
3.582392,0.235066259
3.586088,0.236218664
3.589791,0.236063236
3.593501,0.236362534
3.59722,0.237898973
3.600946,0.237689983
3.604679,0.23757874
3.608421,0.238261427
3.61217,0.238829425
3.615926,0.24038237
3.619691,0.24031235
3.623463,0.2407149
3.627244,0.241453976
3.631032,0.241456382
3.634828,0.242649832
3.638632,0.243011979
3.642444,0.244179693
3.646263,0.244335573
3.650091,0.246006496
3.653927,0.246661762
3.657771,0.24637753
3.661623,0.247027483
3.665483,0.248645549
3.669351,0.249307232
3.673227,0.250154521
3.677111,0.250856188
3.681004,0.252804468
3.684905,0.253369714
3.688814,0.253844088
3.692731,0.254140314
3.696656,0.255216164
3.70059,0.25599586
3.704532,0.257402772
3.708483,0.257528824
3.712442,0.25921819
3.716409,0.260037795
3.720385,0.261300974
3.72437,0.261748695
3.728362,0.262949272
3.732364,0.263711093
3.736374,0.264785363
3.740392,0.266037895
3.744419,0.267758024
3.748455,0.268396987
3.752499,0.26924179
3.756553,0.269737281
3.760614,0.270959567
3.764685,0.271640393
3.768764,0.272992969
3.772853,0.273784643
3.77695,0.27530119
3.781056,0.276353028
3.78517,0.277408693
3.789294,0.278613401
3.793427,0.279647165
3.797568,0.280814252
3.801719,0.282388741
3.805879,0.283535581
3.810048,0.284944326
3.814225,0.286082542
3.818412,0.287176389
3.822609,0.288310325
3.826814,0.289446878
3.831029,0.290282511
3.835252,0.291763761
3.839486,0.292855092
3.843728,0.294147505
3.84798,0.295254844
3.852241,0.29681107
3.856512,0.297702228
3.860792,0.298828055
3.865081,0.299967651
3.86938,0.301115323
3.873689,0.302372331
3.878007,0.303873821
3.882334,0.304764272
3.886672,0.30685826
3.891019,0.307277519
3.895375,0.308599654
3.899742,0.310000627
3.904118,0.311496591
3.908504,0.312732091
3.9129,0.313389644
3.917305,0.315542424
3.921721,0.316980607
3.926146,0.318192369
3.930581,0.320146142
3.935027,0.321379178
3.939482,0.322864924
3.943948,0.324657419
3.948423,0.326932185
3.952909,0.328263911
3.957405,0.33020584
3.961911,0.331787539
3.966427,0.333937874
3.970954,0.335963871
3.975491,0.338545621
3.980038,0.33954847
3.984595,0.341531411
3.989163,0.342691704
3.993742,0.344779397
3.99833,0.34525304
4.00293,0.347356872
4.00754,0.34854762
4.01216,0.350387838
4.016791,0.351497908
4.021433,0.353335661
4.026086,0.355204223
4.030749,0.356792661
4.035423,0.35839664
4.040108,0.360222631
4.044804,0.362288736
4.04951,0.364119109
4.054228,0.366176122
4.058956,0.368560695
4.063695,0.370420627
4.068446,0.37270224
4.073207,0.375012406
4.07798,0.377195896
4.082764,0.378690818
4.087559,0.381719691
4.092365,0.383732581
4.097183,0.386404561
4.102012,0.387943168
4.106852,0.390518063
4.111703,0.392822381
4.116566,0.395336586
4.121441,0.397943733
4.126327,0.400637929
4.131224,0.4031833
4.136133,0.406143879
4.141054,0.408546546
4.145987,0.411350411
4.150931,0.41394755
4.155887,0.416392293
4.160854,0.41894326
4.165834,0.422305821
4.170826,0.424536286
4.175829,0.427566022
4.180844,0.430151368
4.185872,0.433033658
4.190911,0.435970313
4.195963,0.43899408
4.201026,0.442172651
4.206102,0.445544227
4.21119,0.449353965
4.216291,0.453656253
4.221404,0.457411592
4.226529,0.461767142
4.231666,0.46475573
4.236816,0.468343469
4.241979,0.471273793
4.247154,0.473714712
4.252341,0.475132086
4.257542,0.475791608
4.262754,0.480276986
4.26798,0.485916015
4.273219,0.488479904
4.27847,0.49348515
4.283734,0.496158487
4.289011,0.499392421
4.294301,0.501448528
4.299604,0.504298434
4.30492,0.50844332
4.31025,0.511091156
4.315592,0.514475406
4.320948,0.517047929
4.326317,0.52124816
4.331699,0.523473329
4.337095,0.526370465
4.342504,0.530318641
4.347926,0.53428031
4.353362,0.540235477
4.358811,0.543399664
4.364275,0.547338118
4.369751,0.550536825
4.375242,0.554182561
4.380746,0.558438474
4.386264,0.562645821
4.391796,0.565506312
4.397342,0.570912435
4.402902,0.574673138
4.408476,0.579455915
4.414064,0.582480329
4.419666,0.58652446
4.425282,0.590623909
4.430913,0.594412273
4.436558,0.598058447
4.442217,0.602055511
4.447891,0.605683516
4.453579,0.609361953
4.459281,0.61211672
4.464998,0.61699397
4.47073,0.619368233
4.476477,0.622322369
4.482238,0.6249246
4.488014,0.627606176
4.493805,0.630820072
4.499611,0.634062637
4.505431,0.637574048
4.511267,0.640819541
4.517118,0.642354972
4.522984,0.645343908
4.528865,0.646932995
4.534762,0.650654047
4.540674,0.651545416
4.546601,0.655244085
4.552543,0.659260733
4.558502,0.662033233
4.564475,0.663401891
4.570465,0.665295115
4.57647,0.670266601
4.582491,0.673386629
4.588527,0.676283399
4.59458,0.673906222
4.600648,0.681015246
4.606732,0.684542933
4.612833,0.6868586
4.618949,0.689589327
4.625082,0.691589555
4.631231,0.694356673
4.637397,0.698077959
4.643578,0.70112088
4.649777,0.70389519
4.655991,0.707372526
4.662223,0.710750967
4.668471,0.714243051
4.674735,0.717830037
4.681017,0.721512032
4.687315,0.724728055
4.69363,0.728624022
4.699962,0.731831309
4.706312,0.736095315
4.712678,0.739650388
4.719062,0.744619328
4.725463,0.747390971
4.731881,0.751246275
4.738316,0.754525963
4.744769,0.759194337
4.75124,0.762501487
4.757728,0.765588677
4.764234,0.76913429
4.770758,0.772756818
4.777299,0.776053416
4.783859,0.779991367
4.790436,0.782700143
4.797032,0.786554861
4.803645,0.788619043
4.810277,0.79262718
4.816927,0.794504289
4.823596,0.797092015
4.830283,0.798781399
4.836988,0.802082406
4.843712,0.802817076
4.850455,0.806465097
4.857216,0.808757353
4.863996,0.80972973
4.870795,0.812209665
4.877613,0.814535226
4.884451,0.813758058
4.891307,0.8174077
4.898182,0.819248923
4.905077,0.821090123
4.911991,0.822233126
4.918925,0.82428366
4.925878,0.825259876
4.932851,0.826951613
4.939844,0.828653066
4.946856,0.830429548
4.953888,0.832199145
4.960941,0.834568052
4.968013,0.834927768
4.975105,0.83694465
4.982218,0.837868399
4.989351,0.839981713
4.996504,0.841163332
5.003678,0.843106837
5.010872,0.84482007
5.018087,0.847680631
5.025323,0.848350862
5.03258,0.849470494
5.039857,0.850847302
5.047156,0.852658717
5.054475,0.853753982
5.061816,0.8557978
5.069179,0.856904461
5.076562,0.859670392
5.083967,0.861504807
5.091394,0.86239511
5.098842,0.863716926
5.106312,0.865361762
5.113804,0.867349007
5.121318,0.869279172
5.128854,0.871024045
5.136412,0.872558266
5.143992,0.874632396
5.151595,0.876878702
5.15922,0.876775755
5.166868,0.878726787
5.174538,0.879455556
5.182231,0.883377851
5.189947,0.883155502
5.197686,0.886204865
5.205448,0.887358319
5.213233,0.891041255
5.221041,0.890366915
5.228873,0.891814601
5.236728,0.894036729
5.244607,0.894959871
5.25251,0.896606889
5.260436,0.898517268
5.268386,0.900041066
5.27636,0.902558869
5.284358,0.903388053
5.292381,0.9068985
5.300428,0.906739656
5.308499,0.908941996
5.316595,0.910321922
5.324715,0.912286151
5.33286,0.913808743
5.341031,0.916146473
5.349226,0.9220878
5.357446,0.921672062
5.365692,0.923063531
5.373962,0.926654274
5.382259,0.929730755
5.390581,0.934178323
5.398928,0.939129321
5.407302,0.945610039
5.415701,0.955777697
5.424127,0.970551183
5.432579,0.973820316
5.441057,0.993638991
5.449561,0.01011926411
5.458092,0.01050842404
5.46665,0.01100358574
5.475234,0.01172196644
5.483846,0.01291428257
5.492484,0.01496163683
5.50115,0.01886279844
5.509843,0.0160637454
5.518564,0.685599187
5.527312,0.357925732
5.536087,0.380656324
5.544891,0.44864088
5.553723,0.514520945
5.562582,0.558245708
5.57147,0.592854428
5.580387,0.613569584
5.589332,0.644236228
5.598305,0.656666258
5.607307,0.67664623
5.616339,0.687989417
5.625399,0.702807732
5.634489,0.706680691
5.643607,0.715691839
5.652756,0.726237528
5.661934,0.736439881
5.671142,0.740583808
5.680379,0.748929293
5.689647,0.753015061
5.698945,0.76013523
5.708274,0.762958609
5.717633,0.76940518
5.727022,0.7744823
5.736443,0.779693869
5.745894,0.781494636
5.755377,0.786257871
5.76489,0.784377378
5.774436,0.793662466
5.784012,0.800554183
5.793621,0.802782313
5.803262,0.807404961
5.812934,0.807788516
5.822639,0.806726145
5.832376,0.814286409
5.842146,0.819344293
5.851948,0.820879016
5.861783,0.823967737
5.871652,0.825921924
5.881553,0.822406175
5.891488,0.829890239
5.901457,0.831560115
5.911459,0.839587581
5.921495,0.83938824
5.931565,0.838556208
5.94167,0.837875542
5.951809,0.851694405
5.961982,0.844180655
5.97219,0.851921678
5.982433,0.847842625
5.992711,0.854946586
6.003025,0.854005279
6.013374,0.856813155
6.023759,0.856647599
6.034179,0.861483018
6.044636,0.84466296
6.055129,0.859135372
6.065658,0.858777436
6.076224,0.860435981
6.086826,0.8645912
6.097466,0.866047265
6.108143,0.861343127
6.118857,0.865108047
6.129609,0.869177009
6.140398,0.868680818
6.151226,0.870938703
6.162091,0.872019563
6.172996,0.876320564
6.183938,0.871314249
6.19492,0.883836921
6.20594,0.883506233
6.217,0.887681195
6.228099,0.889591223
6.239237,0.891987525
6.250416,0.894028729
6.261635,0.896325259
6.272893,0.897761041
6.284193,0.900220197
6.295533,0.902926154
6.306914,0.902215631
6.318336,0.904529189
6.329799,0.906440352
6.341304,0.901236763
6.352851,0.910804653
6.36444,0.908540067
6.376071,0.911999354
6.387745,0.913932349
6.399461,0.912473131
6.411221,0.904146349
6.423023,0.916265588
6.434869,0.917202696
6.446759,0.922779137
6.458693,0.921092942
6.470671,0.92423734
6.482693,0.917001299
6.49476,0.921946239
6.506872,0.929650527
6.519029,0.929318653
6.531231,0.934829798
6.54348,0.934037014
6.555774,0.935365189
6.568114,0.932783256
6.580501,0.938691359
6.592934,0.94056664
6.605415,0.943006056
6.617943,0.943941727
6.630518,0.939193927
6.643141,0.945657934
6.655812,0.950935479
6.668532,0.947431824
6.6813,0.951358649
6.694117,0.953310517
6.706983,0.953600792
6.719899,0.955712175
6.732864,0.958318158
6.745879,0.959054318
6.758945,0.960141554
6.772062,0.958950493
6.785229,0.957666759
6.798448,0.963146201
6.811718,0.963499376
6.825039,0.963959684
6.838413,0.96669359
6.85184,0.962437321
6.865319,0.964516752
6.878851,0.970930613
6.892437,0.970125518
6.906076,0.972755422
6.919769,0.972037582
6.933517,0.975949017
6.947319,0.972682738
6.961176,0.975246783
6.975089,0.978486692
6.989057,0.977857319
7.003081,0.98036621
7.017161,0.98086958
7.031298,0.981093903
7.045492,0.981101898
7.059743,0.986193294
7.074052,0.984657033
7.088419,0.987306448
7.102845,0.986176787
7.117329,0.988898559
7.131872,0.988525765
7.146475,0.990308802
7.161137,0.990485856
7.17586,0.993866827
7.190643,0.994412133
7.205487,0.99471252
7.220393,0.997303364
7.23536,0.997839864
7.25039,0.01000314173
7.265481,0.01000201984
7.280636,0.01002072929
7.295854,0.01002468926
7.311135,0.01003801331
7.326481,0.01004523915
7.341891,0.01005585351
7.357366,0.01007191567
7.372906,0.0100795846
7.388512,0.01008678409
7.404184,0.01010287253
7.419922,0.01011475522
7.435728,0.01012083302
7.451601,0.01013198499
7.467541,0.01014134594
7.48355,0.01015757134
7.499628,0.01016811009
7.515774,0.0101736239
7.53199,0.01018400242
7.548277,0.01019209597
7.564633,0.01019821974
7.581061,0.010213252
7.59756,0.01021944918
7.614131,0.01023589252
7.630774,0.01024199279
7.647491,0.01025649168
7.66428,0.0102646353
7.681143,0.01027655531
7.69808,0.01028188817
7.715093,0.01028957504
7.73218,0.01030061566
7.749343,0.01031392883
7.766583,0.01032318115
7.783899,0.0103327657
7.801292,0.01034223307
7.818764,0.01034662602
7.836313,0.01035609208
7.853942,0.01036165903
7.871649,0.01037219795
7.889437,0.01037985708
7.907305,0.01038623815
7.925254,0.01039639693
7.943285,0.01041576474
7.961398,0.01043604575
7.979594,0.01044762658
7.997872,0.01046181085
8.016235,0.0104744195
8.034682,0.01049179752
8.053214,0.01050501356
8.071832,0.01051757694
8.090535,0.01053049715
8.109326,0.01053922866
8.128204,0.01055266748
8.147169,0.01056410192
8.166224,0.01057980058
8.185368,0.01058529893
8.204601,0.01059750477
8.223925,0.01060970167
8.24334,0.01062366501
8.262847,0.01063264373
8.282446,0.01063897436
8.302139,0.01064998364
8.321925,0.01066055672
8.341805,0.0106664881
8.361781,0.01068170947
8.381852,0.01068028664
8.40202,0.01069727628
8.422285,0.01070228652
8.442648,0.01070500489
8.463109,0.01071575358
8.48367,0.01073143617
8.504331,0.01074146854
8.525092,0.01075161849
8.545955,0.0107553464
8.566921,0.01076482128
8.587989,0.01076993133
8.609161,0.01078227208
8.630437,0.01078404675
8.651819,0.01079219591
8.673307,0.01079914189
8.694902,0.01080008193
8.716604,0.0108071479
8.738415,0.01081125593
8.760335,0.01082056307
8.782365,0.01082060668
8.804507,0.01082791536
8.82676,0.01083294965
8.849125,0.010834124
8.871604,0.0108380897
8.894198,0.01083576498
8.916907,0.01084514388
8.939732,0.01084035406
8.962673,0.0108497446
8.985733,0.01085536946
9.008912,0.01086011091
9.03221,0.01086199428
9.055629,0.01086231249
9.07917,0.01086291283
9.102833,0.0108662316
9.12662,0.01086826152
9.150531,0.01086218121
9.174568,0.01085774766
9.198731,0.01086875795
9.223022,0.0108662361
9.247441,0.01087773071
9.27199,0.01087418386
9.296669,0.01087954793
9.32148,0.01087591478
9.346423,0.01089110921
9.3715,0.01088667773
9.396712,0.01089920405
9.42206,0.01090392958
9.447545,0.01090710694
9.473167,0.01089773036
9.498929,0.01090222531
9.524832,0.01090025533
9.550876,0.01090678704
9.577062,0.01090622023
9.603393,0.01090671031
9.629868,0.01090555731
9.65649,0.01090922857
9.683259,0.01091068049
9.710176,0.01091878957
9.737244,0.01091623373
9.764463,0.01092350196
9.791834,0.01092080865
9.819359,0.01092877525
9.847039,0.01092496223
9.874875,0.01093646123
9.902869,0.01093991088
9.931022,0.01094390618
9.959336,0.0109485475
9.987811,0.01095348919
10.016449,0.01095160312
10.045252,0.01095900098
10.074221,0.01095763388
10.103357,0.01095770977
10.132662,0.01095657241
10.162137,0.0109614502
10.191784,0.01095808516
10.221604,0.01095985677
10.2516,0.01095632781
10.281771,0.01096432043
10.312121,0.01095190346
10.34265,0.01095662986
10.37336,0.01095008091
10.404253,0.01095704827
10.435331,0.01095084174
10.466594,0.01094886359
10.498045,0.01094668236
10.529686,0.01094540895
10.561517,0.010943259
10.593542,0.01094274556
10.625761,0.01094001171
10.658176,0.01094294733
10.69079,0.01093226765
10.723604,0.01093316965
10.756619,0.01092954855
10.789839,0.01092589385
10.823264,0.01092656465
10.856896,0.01092123881
10.890738,0.01091622864
10.924791,0.01091217421
10.959058,0.01090046005
10.993541,0.01090385886
11.02824,0.01089610416
11.06316,0.01089124727
11.098301,0.01088143812
11.133665,0.01087913984
11.169256,0.01086867526
11.205075,0.01086669723
11.241124,0.01085532212
11.277405,0.01085221764
11.313921,0.01084701013
11.350675,0.01083510871
11.387667,0.01083889008
11.424901,0.01082964529
11.46238,0.01081791035
11.500105,0.01082007394
11.538079,0.01082364833
11.576304,0.01080247414
11.614783,0.0108054202
11.653518,0.01080710644
11.692513,0.01078651788
11.731769,0.01079336898
11.77129,0.01078044329
11.811077,0.01077892241
11.851134,0.01076438456
11.891464,0.01075851187
11.932068,0.01074039841
11.972951,0.01073015276
12.014114,0.01073265743
12.055562,0.01071804277
12.097296,0.01070768423
12.13932,0.0107280857
12.181636,0.01070223999
12.224249,0.01070534653
12.26716,0.01068346479
12.310373,0.01068971534
12.353892,0.01067452672
12.397719,0.01066968739
12.441859,0.01066504159
12.486313,0.01062239839
12.531086,0.01064722309
12.57618,0.01069044454
12.621601,0.0106505208
12.66735,0.01068133845
12.713432,0.01066117446
12.75985,0.01068643062
12.806608,0.01066340753
12.85371,0.01066964876
12.901159,0.01065386455
12.94896,0.01066387174
12.997116,0.01063314638
13.045631,0.01063153763
13.09451,0.01061445157
13.143756,0.01060013235
13.193373,0.01058998288
13.243366,0.0105908239
13.29374,0.01056896279
13.344497,0.01055960713
13.395644,0.01055713472
13.447183,0.01054428885
13.499121,0.01052976048
13.551461,0.01049959145
13.604208,0.010469354
13.657367,0.01048443172
13.710943,0.01046771991
13.764941,0.01046828935
13.819365,0.01044380922
13.874221,0.01042863284
13.929515,0.01040710777
13.98525,0.01040041093
14.041433,0.01036609612
14.098068,0.0103622375
14.155163,0.01032801459
14.212721,0.01031710124
14.270749,0.01026295304
14.329252,0.0102299783
14.388237,0.01019806764
14.447709,0.01016431693
14.507674,0.01009422484
14.568139,0.01006416677
14.629109,0.998048246
14.690592,0.991752396
14.752594,0.983245922
14.815121,0.974895838
14.878179,0.965964774
14.941777,0.93307706
15.00592,0.940119888
15.070616,0.920106063
15.135871,0.891190293
15.201695,0.873567085
15.268092,0.83183981
15.335072,0.803018894
15.402642,0.762513282
15.47081,0.706484706
15.539583,0.666507871
15.60897,0.616993539
15.678979,0.540751671
15.749619,0.521566738
15.820897,0.441879013
15.892824,0.400550224
15.965407,0.368081095
