Database of Origin,University of Winnipeg Spectrophotometer Facility
Sample Description,See Master Clays in HOSERLab database
Date Added,2016-12-11 20:56:55.341377

Data ID,FTIR_CLAY_13        
Sample ID,SAP101
Mineral Name,Saponite
Grain Size,<45 m
Viewing Geometry,35/0
Resolution,11-72 nm
Material Class,Phyllosilicate

Wavelength
2001.142,0.37668969
2002.307,0.37728719
2003.474,0.37795883
2004.643,0.37845368
2005.812,0.37882536
2006.983,0.37963402
2008.155,0.38062263
2009.329,0.38131353
2010.504,0.38182149
2011.68,0.38226538
2012.858,0.38280921
2014.037,0.38354315
2015.217,0.38399567
2016.399,0.38438435
2017.582,0.38499053
2018.766,0.38568403
2019.952,0.38620703
2021.139,0.38647895
2022.328,0.3870064
2023.518,0.38759684
2024.709,0.38796568
2025.902,0.38835509
2027.096,0.38891149
2028.291,0.38935374
2029.488,0.38957831
2030.686,0.38985522
2031.886,0.39027896
2033.087,0.39082124
2034.289,0.39143964
2035.493,0.39201277
2036.698,0.39246662
2037.905,0.39303593
2039.113,0.3934323
2040.322,0.39350196
2041.533,0.39364672
2042.746,0.39389546
2043.959,0.394198
2045.174,0.39451328
2046.391,0.39494755
2047.609,0.3954308
2048.828,0.39576343
2050.049,0.39613882
2051.271,0.39628758
2052.495,0.39636799
2053.72,0.39687211
2054.947,0.39739435
2056.175,0.39779787
2057.404,0.39804131
2058.635,0.39832903
2059.867,0.39886663
2061.101,0.39906594
2062.336,0.39888411
2063.573,0.39898368
2064.811,0.39932319
2066.051,0.3995008
2067.292,0.39975319
2068.534,0.40009307
2069.778,0.40026707
2071.024,0.40037892
2072.271,0.40049097
2073.519,0.40063977
2074.769,0.40104911
2076.02,0.40164881
2077.273,0.4020863
2078.528,0.4022369
2079.784,0.40225617
2081.041,0.40219874
2082.3,0.40213853
2083.56,0.40233971
2084.822,0.40274004
2086.085,0.40303934
2087.35,0.40331344
2088.617,0.40368289
2089.885,0.40397492
2091.154,0.40413522
2092.425,0.40415502
2093.697,0.40415125
2094.971,0.40424338
2096.247,0.40443265
2097.524,0.40496247
2098.803,0.40540479
2100.083,0.4054012
2101.364,0.40551537
2102.648,0.40581834
2103.932,0.40632031
2105.219,0.40691439
2106.506,0.40692321
2107.796,0.40655805
2109.087,0.40673341
2110.379,0.40743231
2111.673,0.40804919
2112.969,0.40826983
2114.266,0.40828673
2115.565,0.40861215
2116.865,0.40925331
2118.167,0.40969844
2119.471,0.40984675
2120.776,0.40996042
2122.082,0.41004795
2123.391,0.41024895
2124.7,0.41039486
2126.012,0.41021179
2127.325,0.40998387
2128.64,0.40987847
2129.956,0.41001085
2131.274,0.41059754
2132.593,0.41126981
2133.914,0.41130916
2135.237,0.41083651
2136.561,0.41082912
2137.887,0.41107587
2139.214,0.41108596
2140.544,0.41129168
2141.874,0.41119267
2143.207,0.41093174
2144.541,0.4110897
2145.876,0.41112347
2147.214,0.41109644
2148.553,0.41137101
2149.893,0.41151208
2151.235,0.41134657
2152.579,0.41121665
2153.925,0.41105497
2155.272,0.41070779
2156.621,0.40992268
2157.972,0.40891426
2159.324,0.40847512
2160.678,0.40845485
2162.033,0.4083539
2163.39,0.40808538
2164.749,0.40784065
2166.11,0.40756318
2167.472,0.40717575
2168.836,0.40689174
2170.202,0.40655707
2171.569,0.40590102
2172.938,0.40503992
2174.309,0.40460623
2175.682,0.40434686
2177.056,0.40366146
2178.432,0.40309964
2179.809,0.40264825
2181.189,0.40193682
2182.57,0.40143114
2183.952,0.40086343
2185.337,0.40013301
2186.723,0.39984802
2188.111,0.39935689
2189.501,0.39827699
2190.892,0.39729562
2192.285,0.39644313
2193.68,0.39525622
2195.077,0.39383399
2196.476,0.39279083
2197.876,0.39228424
2199.278,0.39173531
2200.682,0.39100393
2202.087,0.39009455
2203.494,0.38899881
2204.903,0.38818521
2206.314,0.38729647
2207.727,0.38667453
2209.141,0.38675945
2210.557,0.38689595
2211.975,0.38695404
2213.395,0.38677573
2214.817,0.38676397
2216.24,0.38727931
2217.665,0.38828788
2219.092,0.38953635
2220.521,0.38997375
2221.952,0.3900164
2223.384,0.39051027
2224.818,0.3908955
2226.254,0.39117396
2227.692,0.39147376
2229.132,0.39140078
2230.574,0.39129348
2232.017,0.39125574
2233.462,0.39120305
2234.91,0.39145258
2236.359,0.39175455
2237.809,0.39199999
2239.262,0.39223466
2240.717,0.3923497
2242.173,0.39261298
2243.631,0.39313703
2245.092,0.39375808
2246.554,0.39435433
2248.017,0.39483728
2249.483,0.39529005
2250.951,0.39586214
2252.421,0.39634144
2253.892,0.39675449
2255.365,0.39744786
2256.841,0.39814923
2258.318,0.39845316
2259.797,0.39823332
2261.278,0.39793055
2262.761,0.39785048
2264.246,0.39778128
2265.732,0.39766155
2267.221,0.39733077
2268.712,0.39664008
2270.204,0.3958329
2271.699,0.39525998
2273.195,0.39481416
2274.694,0.39423863
2276.194,0.39350579
2277.696,0.39276362
2279.201,0.39213184
2280.707,0.39154156
2282.215,0.39079862
2283.725,0.39031794
2285.237,0.39003052
2286.752,0.38961295
2288.268,0.38930084
2289.786,0.3889552
2291.306,0.38849305
2292.828,0.3883225
2294.352,0.38858437
2295.878,0.38857957
2297.406,0.38835363
2298.936,0.38822582
2300.468,0.3881906
2302.002,0.38852651
2303.539,0.38879616
2305.077,0.38860524
2306.617,0.38848547
2308.159,0.3885499
2309.703,0.38831568
2311.25,0.38809311
2312.798,0.38821542
2314.348,0.38816523
2315.901,0.38760734
2317.455,0.38704559
2319.012,0.38683208
2320.571,0.38655284
2322.131,0.38613342
2323.694,0.38563779
2325.259,0.38513494
2326.826,0.38490407
2328.395,0.38462736
2329.966,0.38388848
2331.54,0.38302545
2333.115,0.38257109
2334.692,0.38204866
2336.272,0.38131635
2337.854,0.38103451
2339.437,0.38053414
2341.023,0.37953592
2342.611,0.37879798
2344.201,0.37814996
2345.794,0.37736996
2347.388,0.37680663
2348.985,0.37624661
2350.583,0.37560316
2352.184,0.37510689
2353.787,0.37429365
2355.393,0.37331304
2357.0,0.37241672
2358.609,0.37144971
2360.221,0.37069354
2361.835,0.37020446
2363.451,0.36975973
2365.069,0.36913643
2366.69,0.36829577
2368.312,0.3673646
2369.937,0.36646667
2371.564,0.36582035
2373.194,0.36520484
2374.825,0.36471914
2376.459,0.36435523
2378.095,0.36341474
2379.733,0.36236086
2381.373,0.3616092
2383.016,0.36079311
2384.661,0.36001435
2386.308,0.35929856
2387.957,0.35862437
2389.609,0.35798413
2391.263,0.35725996
2392.919,0.35644081
2394.577,0.35560499
2396.238,0.35483989
2397.901,0.35404988
2399.566,0.35349048
2401.233,0.35319649
2402.903,0.35266135
2404.575,0.351748
2406.25,0.35089099
2407.926,0.35028745
2409.606,0.34953549
2411.287,0.34880116
2412.971,0.34826989
2414.657,0.34762744
2416.345,0.34696034
2418.036,0.34614749
2419.729,0.34511963
2421.424,0.34425644
2423.122,0.34363814
2424.822,0.34294812
2426.524,0.34216275
2428.229,0.3414379
2429.936,0.34049651
2431.646,0.33950441
2433.358,0.33865317
2435.072,0.33763803
2436.789,0.3366031
2438.508,0.33580389
2440.229,0.33498862
2441.953,0.33405862
2443.679,0.3332711
2445.408,0.33264444
2447.139,0.33181505
2448.873,0.3305335
2450.609,0.32935181
2452.347,0.3287814
2454.088,0.32834807
2455.831,0.32771943
2457.577,0.32697522
2459.325,0.32607817
2461.076,0.32520805
2462.829,0.32455694
2464.585,0.32399534
2466.343,0.32339852
2468.104,0.32278393
2469.867,0.32213703
2471.632,0.32141668
2473.4,0.32047939
2475.171,0.31963261
2476.944,0.31909458
2478.72,0.31849734
2480.498,0.3178814
2482.278,0.31710723
2484.062,0.31609623
2485.847,0.31527423
2487.636,0.31467593
2489.427,0.31399805
2491.22,0.31312337
2493.016,0.31224677
2494.814,0.31159791
2496.615,0.31101761
2498.419,0.31032136
2500.225,0.30957385
2502.034,0.30889934
2503.845,0.30838975
2505.659,0.30784838
2507.476,0.30732592
2509.295,0.30682484
2511.117,0.30637179
2512.942,0.30606058
2514.769,0.30554329
2516.598,0.30509024
2518.431,0.30501634
2520.266,0.30500927
2522.103,0.30487783
2523.944,0.30450147
2525.787,0.30406533
2527.632,0.30391503
2529.48,0.30416643
2531.331,0.30461066
2533.185,0.30469779
2535.041,0.30443247
2536.9,0.30392203
2538.762,0.30339831
2540.627,0.30373025
2542.494,0.30457684
2544.364,0.30436806
2546.236,0.30404694
2548.112,0.30444666
2549.99,0.30503888
2551.87,0.30550226
2553.754,0.30466275
2555.64,0.30341883
2557.529,0.30364667
2559.421,0.30643581
2561.316,0.31081799
2563.213,0.31131249
2565.113,0.30734906
2567.016,0.3054506
2568.922,0.30624076
2570.831,0.30678546
2572.742,0.30760588
2574.656,0.30831172
2576.573,0.30734745
2578.493,0.30578495
2580.416,0.30613888
2582.342,0.30868586
2584.27,0.30921772
2586.201,0.30768392
2588.135,0.30650786
2590.072,0.30466433
2592.012,0.30619186
2593.955,0.3144757
2595.9,0.31335288
2597.849,0.30390593
2599.8,0.30116259
2601.755,0.3028757
2603.712,0.30583491
2605.672,0.30652298
2607.635,0.30292313
2609.601,0.299267
2611.57,0.29695828
2613.542,0.2966019
2615.517,0.29928129
2617.495,0.30102871
2619.475,0.29931402
2621.459,0.2952035
2623.446,0.29142085
2625.435,0.29131652
2627.428,0.29290017
2629.424,0.29404102
2631.423,0.29273297
2633.424,0.28832154
2635.429,0.2840471
2637.437,0.28105887
2639.447,0.27972109
2641.461,0.27894706
2643.478,0.27821086
2645.498,0.27715565
2647.521,0.27417752
2649.547,0.27175634
2651.576,0.27147959
2653.609,0.27064268
2655.644,0.2677062
2657.682,0.26511257
2659.724,0.26408462
2661.768,0.26256864
2663.816,0.26377885
2665.867,0.26746373
2667.921,0.26596012
2669.978,0.26312222
2672.038,0.25484696
2674.102,0.24791325
2676.168,0.24913541
2678.238,0.24693198
2680.311,0.23582511
2682.387,0.22835848
2684.467,0.22418678
2686.549,0.21783262
2688.635,0.20834732
2690.724,0.19986892
2692.816,0.19657083
2694.911,0.19177882
2697.01,0.17904129
2699.112,0.17033337
2701.217,0.16618855
2703.325,0.15974725
2705.437,0.15346867
2707.552,0.1525322
2709.67,0.15578529
2711.791,0.14835432
2713.916,0.13207432
2716.044,0.12132417
2718.175,0.12105774
2720.31,0.12683928
2722.448,0.12028363
2724.589,0.10752958
2726.734,0.09187979
2728.882,0.07873668
2731.034,0.0714577
2733.188,0.06721841
2735.347,0.06288604
2737.508,0.05911288
2739.673,0.06036338
2741.841,0.05604003
2744.013,0.04557973
2746.188,0.04009646
2748.367,0.03794566
2750.549,0.03670927
2752.734,0.03684324
2754.923,0.0387667
2757.115,0.03670996
2759.311,0.03282115
2761.51,0.03245472
2763.713,0.03282825
2765.919,0.03202689
2768.129,0.0315705
2770.342,0.03142234
2772.559,0.03051275
2774.779,0.02934219
2777.003,0.02906135
2779.23,0.02940042
2781.461,0.02943953
2783.696,0.02912845
2785.934,0.02979211
2788.175,0.03031544
2790.42,0.02912263
2792.669,0.02838754
2794.922,0.02817667
2797.178,0.02780316
2799.437,0.02773757
2801.7,0.0284928
2803.967,0.02917942
2806.238,0.02821058
2808.512,0.02730354
2810.789,0.02706081
2813.071,0.02711839
2815.356,0.02745959
2817.645,0.02791779
2819.937,0.02822269
2822.233,0.02778453
2824.533,0.0270583
2826.837,0.02675075
2829.144,0.02665046
2831.455,0.02654312
2833.77,0.02637627
2836.089,0.025954
2838.411,0.02561017
2840.737,0.02511074
2843.067,0.02449903
2845.401,0.02400639
2847.739,0.02370973
2850.08,0.02380652
2852.425,0.02410108
2854.774,0.02387938
2857.127,0.02315232
2859.484,0.02287688
2861.844,0.02301166
2864.209,0.02253928
2866.577,0.02195315
2868.949,0.02177174
2871.325,0.02164485
2873.705,0.02145271
2876.089,0.02110621
2878.477,0.02093114
2880.869,0.0209152
2883.265,0.02043413
2885.664,0.01992236
2888.068,0.02020223
2890.476,0.02072196
2892.887,0.02049801
2895.303,0.02010692
2897.723,0.01995421
2900.146,0.01954391
2902.574,0.01922251
2905.006,0.0190575
2907.441,0.01920105
2909.881,0.0191802
2912.325,0.0187366
2914.773,0.01899401
2917.225,0.01947356
2919.681,0.01932142
2922.142,0.01915438
2924.606,0.01916396
2927.075,0.0188902
2929.547,0.01837908
2932.024,0.0181287
2934.505,0.01811695
2936.99,0.01835514
2939.479,0.01869637
2941.973,0.01854086
2944.471,0.01838621
2946.973,0.01925658
2949.479,0.01967607
2951.989,0.01916176
2954.504,0.01925125
2957.023,0.01935106
2959.546,0.0186013
2962.073,0.01826873
2964.605,0.01849122
2967.141,0.01846912
2969.681,0.0182017
2972.226,0.01840616
2974.775,0.01945984
2977.328,0.01988895
2979.886,0.01908357
2982.448,0.01867437
2985.015,0.01896216
2987.586,0.01897999
2990.161,0.01918213
2992.74,0.01959202
2995.324,0.01957839
2997.913,0.01971237
3000.506,0.02012148
3003.103,0.02020745
3005.705,0.01974131
3008.312,0.01943204
3010.922,0.01986146
3013.538,0.02046169
3016.158,0.02073163
3018.782,0.02070665
3021.411,0.02061252
3024.044,0.02048651
3026.683,0.02056882
3029.325,0.02169062
3031.972,0.02354959
3034.624,0.02371348
3037.281,0.0223254
3039.942,0.02193827
3042.607,0.02263408
3045.278,0.02317714
3047.953,0.0229631
3050.632,0.02262385
3053.317,0.02277169
3056.006,0.02301953
3058.7,0.02312217
3061.398,0.0234869
3064.101,0.02438471
3066.809,0.02471893
3069.522,0.02421385
3072.239,0.02402836
3074.962,0.02398438
3077.689,0.02404767
3080.421,0.02445466
3083.157,0.02464516
3085.899,0.02507214
3088.645,0.02565939
3091.396,0.02558982
3094.153,0.02540517
3096.914,0.02559901
3099.679,0.02637419
3102.45,0.02683655
3105.226,0.02634314
3108.007,0.02610172
3110.792,0.02619664
3113.583,0.0263512
3116.378,0.02664548
3119.179,0.02705393
3121.985,0.0274475
3124.795,0.02786671
3127.611,0.02827295
3130.431,0.02852975
3133.257,0.0289374
3136.088,0.02941269
3138.924,0.0297721
3141.765,0.03019078
3144.611,0.03074233
3147.462,0.03117148
3150.319,0.03160759
3153.18,0.03221605
3156.047,0.03284523
3158.919,0.0334379
3161.796,0.0340058
3164.678,0.03465045
3167.566,0.03533948
3170.458,0.03588317
3173.356,0.03648468
3176.26,0.03744047
3179.168,0.03918687
3182.082,0.04068739
3185.001,0.04049595
3187.926,0.04019816
3190.856,0.04108962
3193.791,0.04262253
3196.731,0.04348886
3199.677,0.0434575
3202.629,0.04391538
3205.585,0.04493828
3208.548,0.0458555
3211.515,0.04760515
3214.488,0.05041244
3217.467,0.052122
3220.451,0.05165126
3223.441,0.05116888
3226.436,0.05205293
3229.437,0.05268967
3232.443,0.05326741
3235.455,0.0544522
3238.472,0.05529595
3241.495,0.05617295
3244.523,0.05765233
3247.558,0.05912639
3250.598,0.0606337
3253.643,0.0625039
3256.694,0.06426304
3259.751,0.06477761
3262.814,0.06417602
3265.882,0.06458414
3268.956,0.06629094
3272.036,0.06744383
3275.122,0.0677901
3278.213,0.06864507
3281.31,0.07003086
3284.413,0.07149186
3287.522,0.07290247
3290.637,0.07395735
3293.757,0.07569263
3296.884,0.07788167
3300.016,0.07851818
3303.155,0.07886591
3306.299,0.08026995
3309.449,0.08137898
3312.605,0.08220404
3315.767,0.0834488
3318.936,0.08479695
3322.11,0.08639681
3325.29,0.08874936
3328.476,0.09130871
3331.669,0.09229521
3334.867,0.09183733
3338.072,0.09191674
3341.282,0.09302751
3344.499,0.0948247
3347.722,0.09664546
3350.952,0.0982394
3354.187,0.09913454
3357.429,0.09913515
3360.677,0.09972278
3363.931,0.10129185
3367.191,0.10241879
3370.458,0.10271381
3373.731,0.10294089
3377.01,0.10323896
3380.296,0.1039696
3383.588,0.10535476
3386.886,0.10704289
3390.191,0.10878718
3393.502,0.11057289
3396.82,0.11222635
3400.144,0.11326193
3403.475,0.11408115
3406.812,0.11453302
3410.156,0.11382507
3413.506,0.11291756
3416.862,0.11296278
3420.226,0.11458154
3423.596,0.11745475
3426.972,0.12014659
3430.355,0.12303963
3433.745,0.12667587
3437.141,0.13060461
3440.545,0.13492088
3443.954,0.13805973
3447.371,0.13908544
3450.794,0.14019101
3454.224,0.14229621
3457.661,0.14447959
3461.105,0.14668413
3464.556,0.14878825
3468.013,0.15013072
3471.477,0.15110984
3474.948,0.15226023
3478.426,0.15335194
3481.911,0.15437057
3485.403,0.15563891
3488.902,0.15777246
3492.408,0.15940268
3495.921,0.15881932
3499.441,0.15772689
3502.968,0.15772992
3506.502,0.15942825
3510.043,0.16302569
3513.592,0.16738093
3517.147,0.17179778
3520.71,0.17618062
3524.28,0.18003876
3527.857,0.18313778
3531.441,0.1865896
3535.032,0.19002721
3538.631,0.19205082
3542.237,0.19363109
3545.851,0.19560841
3549.471,0.19772443
3553.099,0.19992465
3556.735,0.20203702
3560.378,0.20413606
3564.028,0.2061531
3567.686,0.2081118
3571.351,0.21025752
3575.024,0.21227773
3578.704,0.21417392
3582.392,0.21632727
3586.088,0.21864439
3589.791,0.22053403
3593.501,0.22241745
3597.22,0.22448077
3600.946,0.22580492
3604.679,0.22703347
3608.421,0.22871666
3612.17,0.23080793
3615.926,0.23324257
3619.691,0.23505645
3623.463,0.23643633
3627.244,0.23802761
3631.032,0.23971186
3634.828,0.24144068
3638.632,0.24314063
3642.444,0.24476512
3646.263,0.24648783
3650.091,0.24843612
3653.927,0.25018447
3657.771,0.25156897
3661.623,0.25303809
3665.483,0.25464483
3669.351,0.25625699
3673.227,0.25785684
3677.111,0.25960601
3681.004,0.26166329
3684.905,0.2634389
3688.814,0.26478461
3692.731,0.26623292
3696.656,0.26785045
3700.59,0.2694871
3704.532,0.27099486
3708.483,0.27249478
3712.442,0.27414303
3716.409,0.27580944
3720.385,0.27738876
3724.37,0.27875717
3728.362,0.27996395
3732.364,0.2813161
3736.374,0.28275555
3740.392,0.28416415
3744.419,0.28568223
3748.455,0.28715303
3752.499,0.28857826
3756.553,0.29006628
3760.614,0.29148096
3764.685,0.29292483
3768.764,0.2943614
3772.853,0.29569518
3776.95,0.29696897
3781.056,0.29820939
3785.17,0.29949006
3789.294,0.30079204
3793.427,0.3020579
3797.568,0.3032157
3801.719,0.30442681
3805.879,0.30562064
3810.048,0.30662814
3814.225,0.30768344
3818.412,0.30869892
3822.609,0.30963581
3826.814,0.31065945
3831.029,0.31168619
3835.252,0.31281659
3839.486,0.31387211
3843.728,0.31467288
3847.98,0.31551363
3852.241,0.31627732
3856.512,0.31703505
3860.792,0.31799788
3865.081,0.31889293
3869.38,0.3196948
3873.689,0.32040991
3878.007,0.32098497
3882.334,0.32165692
3886.672,0.32247565
3891.019,0.32321413
3895.375,0.3238886
3899.742,0.32475817
3904.118,0.32563635
3908.504,0.3263317
3912.9,0.32695061
3917.305,0.32744753
3921.721,0.3278598
3926.146,0.32831765
3930.581,0.32890552
3935.027,0.32941871
3939.482,0.32978915
3943.948,0.3302641
3948.423,0.3307682
3952.909,0.33123003
3957.405,0.33176832
3961.911,0.33240287
3966.427,0.33306469
3970.954,0.3336563
3975.491,0.33412474
3980.038,0.33457953
3984.595,0.33500338
3989.163,0.335265
3993.742,0.33544746
3998.33,0.33578221
4002.93,0.33617408
4007.54,0.33637122
4012.16,0.33659477
4016.791,0.336858
4021.433,0.33702462
4026.086,0.33716512
4030.749,0.33737971
4035.423,0.33776864
4040.108,0.33821939
4044.804,0.33849291
4049.51,0.33874407
4054.228,0.33901436
4058.956,0.33919326
4063.695,0.33957034
4068.446,0.34007219
4073.207,0.34054686
4077.98,0.34082284
4082.764,0.34093273
4087.559,0.34128329
4092.365,0.3418443
4097.183,0.34244153
4102.012,0.34307893
4106.852,0.34372818
4111.703,0.34435627
4116.566,0.34505915
4121.441,0.34584885
4126.327,0.34658115
4131.224,0.3472617
4136.133,0.34802481
4141.054,0.34889934
4145.987,0.34986994
4150.931,0.35086357
4155.887,0.35177621
4160.854,0.35255898
4165.834,0.35329156
4170.826,0.35403367
4175.829,0.35475928
4180.844,0.35561274
4185.872,0.35688076
4190.911,0.35890926
4195.963,0.36261037
4201.026,0.3695621
4206.102,0.38082408
4211.19,0.39593721
4216.291,0.41317411
4221.404,0.43019148
4226.529,0.44520645
4231.666,0.45689554
4236.816,0.46346915
4241.979,0.46284108
4247.154,0.4530983
4252.341,0.43204661
4257.542,0.41583763
4262.754,0.42131193
4267.98,0.43848274
4273.219,0.44612354
4278.47,0.44645966
4283.734,0.44642163
4289.011,0.44703058
4294.301,0.44545241
4299.604,0.4417075
4304.92,0.43886729
4310.25,0.43477498
4315.592,0.42810469
4320.948,0.42184765
4326.317,0.4175167
4331.699,0.41367011
4337.095,0.40995072
4342.504,0.40722098
4347.926,0.40562387
4353.362,0.40477191
4358.811,0.4044341
4364.275,0.40449819
4369.751,0.40476356
4375.242,0.40512137
4380.746,0.40593573
4386.264,0.40752679
4391.796,0.40938421
4397.342,0.41100086
4402.902,0.41256459
4408.476,0.41430982
4414.064,0.4160723
4419.666,0.41759973
4425.282,0.4188626
4430.913,0.42007698
4436.558,0.42147167
4442.217,0.42288311
4447.891,0.42406489
4453.579,0.42536706
4459.281,0.42675676
4464.998,0.42792978
4470.73,0.42905723
4476.477,0.43025613
4482.238,0.43144444
4488.014,0.43242097
4493.805,0.4335426
4499.611,0.43486262
4505.431,0.43576711
4511.267,0.43663212
4517.118,0.43811627
4522.984,0.43962846
4528.865,0.44093191
4534.762,0.44253944
4540.674,0.44395524
4546.601,0.44478761
4552.543,0.44586213
4558.502,0.44741364
4564.475,0.44878404
4570.465,0.45019938
4576.47,0.4517172
4582.491,0.45308246
4588.527,0.45464629
4594.58,0.45610517
4600.648,0.45717425
4606.732,0.45817158
4612.833,0.45952379
4618.949,0.46116582
4625.082,0.46276762
4631.231,0.46436222
4637.397,0.46595107
4643.578,0.46734069
4649.777,0.46866187
4655.991,0.47032559
4662.223,0.47210952
4668.471,0.47363655
4674.735,0.47531436
4681.017,0.47753818
4687.315,0.47944347
4693.63,0.48079854
4699.962,0.48260786
4706.312,0.48452447
4712.678,0.48622906
4719.062,0.48806398
4725.463,0.48988024
4731.881,0.49144638
4738.316,0.49298819
4744.769,0.49485153
4751.24,0.49682919
4757.728,0.49878708
4764.234,0.50072704
4770.758,0.50283845
4777.299,0.50522219
4783.859,0.50739883
4790.436,0.50901743
4797.032,0.51001804
4803.645,0.51077628
4810.277,0.51210037
4816.927,0.51391103
4823.596,0.51551488
4830.283,0.51699868
4836.988,0.51941718
4843.712,0.52179953
4850.455,0.52268485
4857.216,0.52353327
4863.996,0.52507795
4870.795,0.52678017
4877.613,0.52843979
4884.451,0.529987
4891.307,0.53200701
4898.182,0.53413869
4905.077,0.53507823
4911.991,0.53565406
4918.925,0.53683195
4925.878,0.53821095
4932.851,0.53976454
4939.844,0.54132452
4946.856,0.54348069
4953.888,0.54678537
4960.941,0.54809211
4968.013,0.54720882
4975.105,0.54765131
4982.218,0.54897943
4989.351,0.5501913
4996.504,0.551687
5003.678,0.55293825
5010.872,0.55581898
5018.087,0.56083871
5025.323,0.56196087
5032.58,0.55969923
5039.857,0.55920047
5047.156,0.56015293
5054.475,0.56143552
5061.816,0.56288362
5069.179,0.56445699
5076.562,0.56804646
5083.967,0.5713942
5091.394,0.57065339
5098.842,0.57002446
5106.312,0.57154495
5113.804,0.57299779
5121.318,0.57380903
5128.854,0.57490219
5136.412,0.57908482
5143.992,0.58614118
5151.595,0.58650653
5159.22,0.58146175
5166.868,0.58086234
5174.538,0.58249177
5182.231,0.58316618
5189.947,0.58643502
5197.686,0.59256362
5205.448,0.59768656
5213.233,0.59944421
5221.041,0.59470068
5228.873,0.59265433
5236.728,0.59591024
5244.607,0.59523845
5252.51,0.59360326
5260.436,0.59416581
5268.386,0.59706491
5276.36,0.60027284
5284.358,0.6040859
5292.381,0.60741141
5300.428,0.60437689
5308.499,0.60153125
5316.595,0.60235651
5324.715,0.60337801
5332.86,0.60471582
5341.031,0.61510162
5349.226,0.62992529
5357.446,0.62482998
5365.692,0.6131069
5373.962,0.61216193
5382.259,0.61348915
5390.581,0.61400134
5398.928,0.61648232
5407.302,0.62491802
5415.701,0.64267379
5424.127,0.64963659
5432.579,0.63738392
5441.057,0.63333375
5449.561,0.64015432
5458.092,0.65545272
5466.65,0.67323701
5475.234,0.67722703
5483.846,0.67529974
5492.484,0.67469466
5501.15,0.68404482
5509.843,0.70231652
5518.564,0.72918801
5527.312,0.75813418
5536.087,0.79029547
5544.891,0.86197298
5553.723,0.9299993
5562.582,0.86017261
5571.47,0.63583223
5580.387,0.47255353
5589.332,0.4354326
5598.305,0.44635727
5607.307,0.46644705
5616.339,0.48647652
5625.399,0.50280232
5634.489,0.52011748
5643.607,0.53391184
5652.756,0.53754159
5661.934,0.53968869
5671.142,0.54880911
5680.379,0.55844984
5689.647,0.56175331
5698.945,0.56638386
5708.274,0.57828671
5717.633,0.58590312
5727.022,0.5851306
5736.443,0.58704832
5745.894,0.59025795
5755.377,0.59864652
5764.89,0.61043165
5774.436,0.60442594
5784.012,0.5926514
5793.621,0.59022841
5803.262,0.59677884
5812.934,0.61624989
5822.639,0.63113207
5832.376,0.61889365
5842.146,0.60781364
5851.948,0.61472883
5861.783,0.62699786
5871.652,0.64147003
5881.553,0.65461192
5891.488,0.64757531
5901.457,0.62911496
5911.459,0.62253995
5921.495,0.63519489
5931.565,0.65748634
5941.67,0.65341862
5951.809,0.63740697
5961.982,0.64106685
5972.19,0.64972867
5982.433,0.65458206
5992.711,0.6479628
6003.025,0.64075965
6013.374,0.64223029
6023.759,0.63886295
6034.179,0.65675445
6044.636,0.68491447
6055.129,0.67848458
6065.658,0.67428139
6076.224,0.66593899
6086.826,0.64987618
6097.466,0.66014789
6108.143,0.67942384
6118.857,0.66871586
6129.609,0.65620251
6140.398,0.66266016
6151.226,0.67090496
6162.091,0.67107835
6172.996,0.67585651
6183.938,0.68099271
6194.92,0.67257887
6205.94,0.67048259
6217.0,0.67395382
6228.099,0.67463158
6239.237,0.67586021
6250.416,0.6772233
6261.635,0.68026102
6272.893,0.68288075
6284.193,0.68377847
6295.533,0.68491909
6306.914,0.68632341
6318.336,0.68936975
6329.799,0.7027555
6341.304,0.71244978
6352.851,0.70929094
6364.44,0.71387632
6376.071,0.71416944
6387.745,0.71278816
6399.461,0.73670629
6411.221,0.76142775
6423.023,0.74418127
6434.869,0.72625402
6446.759,0.72306487
6458.693,0.7280797
6470.671,0.7484268
6482.693,0.76945759
6494.76,0.75823045
6506.872,0.74367693
6519.029,0.74203408
6531.231,0.74024407
6543.48,0.74737458
6555.774,0.76126988
6568.114,0.76935464
6580.501,0.76699141
6592.934,0.75870486
6605.415,0.75531479
6617.943,0.77169988
6630.518,0.78523821
6643.141,0.76157733
6655.812,0.74896803
6668.532,0.75786408
6681.3,0.75560153
6694.117,0.7552308
6706.983,0.765265
6719.899,0.75877661
6732.864,0.74674336
6745.879,0.74613976
6758.945,0.75396843
6772.062,0.76950112
6785.229,0.77323127
6798.448,0.75882451
6811.718,0.75614357
6825.039,0.7585513
6838.413,0.76462914
6851.84,0.78339903
6865.319,0.77784694
6878.851,0.75985708
6892.437,0.75848814
6906.076,0.75832345
6919.769,0.75343279
6933.517,0.75670728
6947.319,0.76972678
6961.176,0.77136602
6975.089,0.76502487
6989.057,0.76439935
7003.081,0.76464647
7017.161,0.76874096
7031.298,0.77918024
7045.492,0.78093756
7059.743,0.77067055
7074.052,0.76607149
7088.419,0.76802329
7102.845,0.77150486
7117.329,0.77408411
7131.872,0.77871989
7146.475,0.78677736
7161.137,0.78718769
7175.86,0.78144972
7190.643,0.78295717
7205.487,0.7848666
7220.393,0.78117873
7235.36,0.78122986
7250.39,0.78624947
7265.481,0.79130615
7280.636,0.79077286
7295.854,0.78836966
7311.135,0.79115729
7326.481,0.79684408
7341.891,0.79605592
7357.366,0.79190765
7372.906,0.79152242
7388.512,0.79233279
7404.184,0.79322511
7419.922,0.79384646
7435.728,0.79713176
7451.601,0.80326317
7467.541,0.80371421
7483.55,0.79977703
7499.628,0.79875086
7515.774,0.79972477
7531.99,0.80082891
7548.277,0.80276766
7564.633,0.8055723
7581.061,0.80726532
7597.56,0.80767497
7614.131,0.8078073
7630.774,0.80788135
7647.491,0.80849171
7664.28,0.8094476
7681.143,0.81036793
7698.08,0.81122427
7715.093,0.81197287
7732.18,0.81287298
7749.343,0.81385432
7766.583,0.81423851
7783.899,0.81449694
7801.292,0.81519063
7818.764,0.81595465
7836.313,0.81701383
7853.942,0.81827756
7871.649,0.8191957
7889.437,0.82013793
7907.305,0.8215234
7925.254,0.82278034
7943.285,0.82352626
7961.398,0.82418624
7979.594,0.82497929
7997.872,0.8260739
8016.235,0.82725179
8034.682,0.82812511
8053.214,0.8290479
8071.832,0.83014567
8090.535,0.83104853
8109.326,0.83176576
8128.204,0.83265241
8147.169,0.8335774
8166.224,0.83422883
8185.368,0.83474528
8204.601,0.8352777
8223.925,0.83574145
8243.34,0.83609898
8262.847,0.83657216
8282.446,0.837032
8302.139,0.83739881
8321.925,0.8379388
8341.805,0.83856285
8361.781,0.83924705
8381.852,0.84000808
8402.02,0.84080467
8422.285,0.8414506
8442.648,0.84175805
8463.109,0.84203407
8483.67,0.84246407
8504.331,0.84281115
8525.092,0.84312385
8545.955,0.84357728
8566.921,0.84403135
8587.989,0.84448299
8609.161,0.84498132
8630.437,0.84550747
8651.819,0.84599627
8673.307,0.84638897
8694.902,0.84683316
8716.604,0.8473195
8738.415,0.84772318
8760.335,0.84800954
8782.365,0.84834022
8804.507,0.84885125
8826.76,0.84936088
8849.125,0.84974041
8871.604,0.85010915
8894.198,0.85053116
8916.907,0.85089111
8939.732,0.85113883
8962.673,0.85134044
8985.733,0.85158141
9008.912,0.85192493
9032.21,0.85232408
9055.629,0.85259548
9079.17,0.85276321
9102.833,0.85304544
9126.62,0.85333368
9150.531,0.85342685
9174.568,0.8535407
9198.731,0.85371658
9223.022,0.85391086
9247.441,0.85434937
9271.99,0.8547698
9296.669,0.85485678
9321.48,0.85491202
9346.423,0.85524508
9371.5,0.85575391
9396.712,0.8561639
9422.06,0.85647856
9447.545,0.85693601
9473.167,0.85746282
9498.929,0.85785985
9524.832,0.85828563
9550.876,0.85886538
9577.062,0.85937568
9603.393,0.85980647
9629.868,0.8602975
9656.49,0.8607849
9683.259,0.86117115
9710.176,0.86163741
9737.244,0.86232979
9764.463,0.8630101
9791.834,0.86366309
9819.359,0.86441552
9847.039,0.86512069
9874.875,0.86559297
9902.869,0.8659374
9931.022,0.86634182
9959.336,0.86681009
9987.811,0.86725608
10016.449,0.86761641
10045.252,0.86797833
10074.221,0.86847341
10103.357,0.86898056
10132.662,0.86943683
10162.137,0.86995184
10191.784,0.87050906
10221.604,0.87104032
10251.6,0.87146899
10281.771,0.87185659
10312.121,0.8724034
10342.65,0.87296293
10373.36,0.87335773
10404.253,0.87373517
10435.331,0.87419519
10466.594,0.87472997
10498.045,0.87510778
10529.686,0.87533203
10561.517,0.87572953
10593.542,0.8760774
10625.761,0.8761715
10658.176,0.87634319
10690.79,0.876589
10723.604,0.87661938
10756.619,0.87631474
10789.839,0.87594985
10823.264,0.87583846
10856.896,0.87573703
10890.738,0.87547564
10924.791,0.87522749
10959.058,0.87499044
10993.541,0.874578
11028.24,0.87410651
11063.16,0.87385154
11098.301,0.87369006
11133.665,0.87358325
11169.256,0.87359833
11205.075,0.87362829
11241.124,0.87361624
11277.405,0.87367243
11313.921,0.87391711
11350.675,0.87427367
11387.667,0.874732
11424.901,0.87510113
11462.38,0.87536002
11500.105,0.87582604
11538.079,0.8764359
11576.304,0.87686338
11614.783,0.87699884
11653.518,0.87710443
11692.513,0.87738859
11731.769,0.8776897
11771.29,0.87788485
11811.077,0.87806429
11851.134,0.87832604
11891.464,0.87839874
11932.068,0.87846676
11972.951,0.87888644
12014.114,0.87913859
12055.562,0.87891244
12097.296,0.87840065
12139.32,0.87786954
12181.636,0.8774411
12224.249,0.87746654
12267.16,0.87793026
12310.373,0.87837944
12353.892,0.87872997
12397.719,0.87878703
12441.859,0.87874681
12486.313,0.87881232
12531.086,0.87887879
12576.18,0.879011
12621.601,0.87898823
12667.35,0.87885561
12713.432,0.87878611
12759.85,0.87868574
12806.608,0.87892606
12853.71,0.87951811
12901.159,0.87980562
12948.96,0.87953546
12997.116,0.87912541
13045.631,0.87887817
13094.51,0.8789564
13143.756,0.87893038
13193.373,0.8784629
13243.366,0.87833234
13293.74,0.87847044
13344.497,0.87852784
13395.644,0.87858949
13447.183,0.8788283
13499.121,0.87906462
13551.461,0.87886089
13604.208,0.87874544
13657.367,0.87893121
13710.943,0.87916367
13764.941,0.87919306
13819.365,0.87882112
13874.221,0.87807269
13929.515,0.877341
13985.25,0.87677232
14041.433,0.87604231
14098.068,0.87524452
14155.163,0.8739712
14212.721,0.8722996
14270.749,0.87056759
14329.252,0.86846873
14388.237,0.86602702
14447.709,0.86343893
14507.674,0.86072634
14568.139,0.85716083
14629.109,0.85211057
14690.592,0.84606164
14752.594,0.83915683
14815.121,0.83096651
14878.179,0.82494953
14941.777,0.81830529
15005.92,0.80322739
15070.616,0.78483336
15135.871,0.76540267
15201.695,0.74263609
15268.092,0.71466325
15335.072,0.68118847
15402.642,0.64645662
15470.81,0.60922753
15539.583,0.56699985
15608.97,0.52304614
15678.979,0.47803873
15749.619,0.43838592
15820.897,0.40786248
15892.824,0.37758779
15965.407,0.34823669
