Database of Origin,University of Winnipeg Spectrophotometer Facility
Sample Description,16.11. Meteorites - HEDs 16.11.3. NASA samples (4) Bruker Vertex 70 FTIR spectrometer
Other Information,MIR Glowbar KBr Beam Splitter MCT cryo cooled Dectect.
Date Added,2018-07-23 23:49:05.867314

Data ID,FTIR_MET2_6_37      
Sample ID,NWA 1943
Mineral Name,Howardite
Grain Size,<45 um
Viewing Geometry,i30/ e0
Resolution,7.71cm-1

Wavelength
1672.316177,0.31655
1674.476792,0.31586
1676.642997,0.31485
1678.814814,0.31409
1680.992268,0.31356
1683.175374,0.31255
1685.364158,0.31085
1687.558643,0.30946
1689.758849,0.30893
1691.9648,0.30824
1694.176519,0.30758
1696.394027,0.30808
1698.61735,0.30851
1700.846507,0.3072
1703.081521,0.30563
1705.322418,0.30502
1707.569219,0.30444
1709.821949,0.30348
1712.08063,0.30266
1714.345286,0.30208
1716.615945,0.30107
1718.892624,0.30049
1721.175349,0.30014
1723.464146,0.2991
1725.759038,0.29822
1728.060049,0.29796
1730.367205,0.29811
1732.68053,0.29734
1735.000051,0.29564
1737.325788,0.29471
1739.657769,0.29404
1741.996018,0.29296
1744.340562,0.29219
1746.691425,0.29185
1749.048633,0.29188
1751.412211,0.29179
1753.78219,0.29074
1756.158588,0.28884
1758.541435,0.28697
1760.930758,0.28588
1763.326581,0.28549
1765.728933,0.28512
1768.13784,0.28449
1770.553328,0.28372
1772.975429,0.28308
1775.404162,0.28226
1777.839558,0.28143
1780.281645,0.28092
1782.73045,0.28047
1785.186001,0.2802
1787.648326,0.27984
1790.117454,0.27892
1792.593414,0.27775
1795.07623,0.2771
1797.565933,0.27686
1800.062552,0.27617
1802.566116,0.27528
1805.076653,0.27484
1807.594193,0.27452
1810.118766,0.27381
1812.650403,0.27339
1815.189129,0.27293
1817.734976,0.27165
1820.287974,0.27038
1822.848154,0.2696
1825.415545,0.2691
1827.990179,0.26863
1830.572085,0.26812
1833.161299,0.26792
1835.757844,0.26752
1838.361756,0.26652
1840.973065,0.26579
1843.591803,0.2654
1846.218001,0.2649
1848.851693,0.2647
1851.492909,0.26456
1854.141686,0.26389
1856.798049,0.26285
1859.462034,0.26203
1862.133675,0.26169
1864.813003,0.26132
1867.500053,0.26071
1870.194858,0.26037
1872.897451,0.26022
1875.60787,0.25987
1878.326142,0.2595
1881.052305,0.25893
1883.786392,0.25843
1886.528439,0.25823
1889.27848,0.25773
1892.03655,0.25708
1894.802685,0.25672
1897.576923,0.25628
1900.359294,0.25571
1903.149835,0.25524
1905.948585,0.25498
1908.755578,0.25458
1911.570851,0.25368
1914.394441,0.253
1917.226385,0.25329
1920.066724,0.25399
1922.915487,0.25416
1925.772716,0.25359
1928.638449,0.25301
1931.512723,0.2527
1934.395578,0.25209
1937.28705,0.25162
1940.18718,0.25208
1943.09601,0.2527
1946.013571,0.25232
1948.939907,0.25133
1951.875057,0.251
1954.819061,0.25142
1957.771959,0.25143
1960.733792,0.25073
1963.7046,0.25021
1966.684429,0.25035
1969.67331,0.25038
1972.671291,0.25052
1975.678411,0.25108
1978.694713,0.25107
1981.72024,0.25055
1984.755033,0.25007
1987.799135,0.24976
1990.852594,0.2498
1993.915443,0.25037
1996.987732,0.25105
2000.069502,0.25086
2003.160799,0.25034
2006.261667,0.25057
2009.37215,0.251
2012.492292,0.25093
2015.622144,0.25104
2018.761742,0.25158
2021.911136,0.25179
2025.070371,0.25165
2028.239495,0.25139
2031.418553,0.25119
2034.607593,0.25163
2037.806661,0.25262
2041.015809,0.25326
2044.235076,0.2535
2047.464515,0.25393
2050.704173,0.25411
2053.9541,0.25404
2057.214344,0.25424
2060.484955,0.25464
2063.765981,0.25522
2067.057478,0.25592
2070.359486,0.25657
2073.672061,0.25719
2076.995253,0.25762
2080.329113,0.25782
2083.673693,0.25787
2087.029044,0.25783
2090.39522,0.25815
2093.772276,0.25885
2097.160256,0.25946
2100.559219,0.26032
2103.969217,0.26126
2107.390304,0.26157
2110.822536,0.26165
2114.265965,0.26239
2117.720647,0.26322
2121.186643,0.26336
2124.663997,0.26372
2128.152772,0.2649
2131.653022,0.26612
2135.164806,0.26702
2138.68818,0.26798
2142.223201,0.26874
2145.769927,0.26897
2149.328422,0.26908
2152.898735,0.26967
2156.480928,0.27062
2160.075063,0.27131
2163.681197,0.27176
2167.299393,0.27247
2170.929709,0.27357
2174.572208,0.27466
2178.226956,0.27559
2181.894004,0.27654
2185.57342,0.27749
2189.265266,0.27834
2192.969606,0.27887
2196.686503,0.27938
2200.416021,0.28023
2204.158225,0.28122
2207.913183,0.28222
2211.680953,0.28308
2215.461603,0.28398
2219.255201,0.28511
2223.061813,0.28621
2226.881507,0.28693
2230.714349,0.28755
2234.560407,0.28828
2238.419756,0.28886
2242.292454,0.28971
2246.178575,0.29068
2250.07819,0.29143
2253.991369,0.29253
2257.918183,0.29383
2261.858702,0.2947
2265.813,0.29531
2269.781154,0.2963
2273.763225,0.29757
2277.759293,0.29856
2281.769432,0.29948
2285.793716,0.3005
2289.832221,0.30144
2293.88502,0.30224
2297.952192,0.30304
2302.033816,0.30383
2306.129961,0.30447
2310.240709,0.30502
2314.366139,0.30576
2318.506328,0.30681
2322.661356,0.30772
2326.831304,0.30834
2331.016252,0.30908
2335.216286,0.31021
2339.431477,0.31136
2343.661913,0.31231
2347.907677,0.31349
2352.168852,0.31485
2356.445521,0.31602
2360.737771,0.31677
2365.045686,0.31742
2369.369358,0.31839
2373.708861,0.31919
2378.06429,0.31977
2382.435731,0.32066
2386.823273,0.32165
2391.227005,0.32281
2395.647017,0.32417
2400.0834,0.32508
2404.53625,0.32554
2409.005647,0.32634
2413.491691,0.32765
2417.994473,0.32881
2422.514088,0.32959
2427.050631,0.33037
2431.604196,0.33111
2436.17488,0.33167
2440.762785,0.33242
2445.367997,0.33339
2449.99062,0.33431
2454.630753,0.33529
2459.288496,0.33609
2463.963948,0.33668
2468.657212,0.3374
2473.368389,0.33836
2478.097588,0.33935
2482.844901,0.34015
2487.610438,0.34105
2492.394303,0.34203
2497.196603,0.34267
2502.017445,0.34327
2506.856937,0.34409
2511.715186,0.34495
2516.592308,0.34576
2521.488402,0.34639
2526.403583,0.34675
2531.337964,0.34697
2536.291658,0.34741
2541.264778,0.3479
2546.257439,0.34834
2551.269756,0.34913
2556.301852,0.34954
2561.353831,0.34955
2566.425818,0.35018
2571.517932,0.35069
2576.630293,0.35093
2581.763021,0.35132
2586.91624,0.35178
2592.090072,0.3523
2597.284647,0.35292
2602.500077,0.35346
2607.736495,0.35412
2612.994027,0.35472
2618.272802,0.35531
2623.572949,0.35584
2628.894597,0.35621
2634.237878,0.35748
2639.60293,0.35859
2644.989874,0.359
2650.398851,0.3594
2655.829995,0.35946
2661.283444,0.35874
2666.759335,0.35818
2672.257807,0.35864
2677.779,0.35945
2683.323062,0.36022
2688.890121,0.36045
2694.480328,0.3603
2700.093828,0.35984
2705.730766,0.3587
2711.39129,0.35728
2717.075548,0.35554
2722.783689,0.35361
2728.515871,0.35207
2734.272233,0.34943
2740.052934,0.34538
2745.85813,0.34179
2751.687977,0.33812
2757.542631,0.33409
2763.422252,0.331
2769.327,0.3286
2775.257043,0.32625
2781.212529,0.32372
2787.19363,0.32177
2793.200512,0.32052
2799.233341,0.31888
2805.292287,0.31735
2811.377519,0.31656
2817.489208,0.3158
2823.627536,0.31489
2829.79266,0.31377
2835.984766,0.31292
2842.20403,0.31223
2848.450631,0.31114
2854.72475,0.31028
2861.02657,0.3098
2867.356274,0.30962
2873.714055,0.30943
2880.100086,0.30877
2886.514561,0.30821
2892.957673,0.30777
2899.429613,0.30741
2905.930575,0.30751
2912.460755,0.30782
2919.020351,0.3078
2925.609569,0.30741
2932.228594,0.30688
2938.877637,0.30658
2945.556904,0.30653
2952.266599,0.3066
2959.006933,0.30698
2965.778115,0.30739
2972.580357,0.30768
2979.413883,0.30796
2986.278891,0.30821
2993.175608,0.30849
3000.104254,0.30893
3007.065051,0.30936
3014.058225,0.30986
3021.084,0.31026
3028.142607,0.31078
3035.234283,0.3117
3042.359245,0.31251
3049.517737,0.31287
3056.709994,0.31321
3063.936258,0.31375
3071.196769,0.31443
3078.491772,0.31524
3085.821513,0.31584
3093.186251,0.31616
3100.586217,0.31663
3108.021674,0.31752
3115.492879,0.31858
3123.000089,0.3196
3130.543567,0.32069
3138.123574,0.32156
3145.740377,0.32248
3153.394256,0.32359
3161.08546,0.32447
3168.814274,0.32536
3176.580974,0.32643
3184.38584,0.32752
3192.229154,0.3283
3200.1112,0.32892
3208.032266,0.32984
3215.992653,0.33082
3223.992633,0.33152
3232.032514,0.33213
3240.112594,0.33303
3248.233176,0.33394
3256.394564,0.33454
3264.597068,0.33514
3272.840999,0.33577
3281.126681,0.33629
3289.454413,0.33698
3297.824524,0.33786
3306.237341,0.33863
3314.693189,0.33919
3323.192401,0.33947
3331.735311,0.33962
3340.322256,0.33974
3348.95359,0.33948
3357.629634,0.33818
3366.350748,0.33604
3375.117285,0.33504
3383.929601,0.33556
3392.788054,0.33498
3401.693008,0.33219
3410.64483,0.32946
3419.643903,0.33009
3428.690579,0.33383
3437.785247,0.33778
3446.928291,0.34076
3456.120099,0.34247
3465.36106,0.34307
3474.651571,0.34306
3483.99203,0.34212
3493.382855,0.34069
3502.824429,0.34107
3512.317177,0.34398
3521.861515,0.34716
3531.457866,0.34924
3541.106657,0.35049
3550.808317,0.35123
3560.563284,0.35163
3570.372009,0.35194
3580.234914,0.35256
3590.15246,0.35319
3600.125104,0.35336
3610.153306,0.35337
3620.237532,0.35359
3630.378252,0.35392
3640.575942,0.35411
3650.831097,0.35428
3661.144177,0.35437
3671.515689,0.35431
3681.946129,0.35431
3692.436003,0.35431
3702.985818,0.35411
3713.596091,0.35386
3724.267342,0.35381
3735.000113,0.35413
3745.79491,0.35475
3756.652285,0.35522
3767.572784,0.35512
3778.556959,0.35474
3789.605369,0.35455
3800.71858,0.35458
3811.897162,0.35465
3823.141709,0.35451
3834.452778,0.35416
3845.830974,0.35388
3857.276898,0.35373
3868.791155,0.35361
3880.37436,0.35355
3892.027134,0.35349
3903.750106,0.35322
3915.543926,0.35272
3927.409209,0.35218
3939.346621,0.35179
3951.356822,0.35165
3963.44048,0.35136
3975.598271,0.35091
3987.830879,0.35062
4000.138997,0.35023
4012.523342,0.34971
4024.984593,0.3493
4037.523484,0.34891
4050.140742,0.34853
4062.837106,0.34815
4075.613322,0.34772
4088.470144,0.34752
4101.408338,0.34748
4114.428697,0.34715
4127.531971,0.34662
4140.718972,0.34603
4153.990505,0.34516
4167.347385,0.34434
4180.790439,0.34384
4194.320503,0.34299
4207.938425,0.34155
4221.64508,0.33975
4235.441304,0.33808
4249.327994,0.33747
4263.306045,0.33676
4277.376359,0.33594
4291.539855,0.33574
4305.79746,0.33495
4320.150116,0.33375
4334.598795,0.33331
4349.144426,0.33325
4363.788008,0.33294
4378.530532,0.33246
4393.373006,0.33209
4408.316449,0.33162
4423.361896,0.33083
4438.510393,0.33022
4453.763023,0.32989
4469.120824,0.32945
4484.584908,0.32881
4500.15638,0.32802
4515.836365,0.32699
4531.626,0.32559
4547.52644,0.32381
4563.538854,0.3218
4579.664452,0.31952
4595.904394,0.31718
4612.259923,0.31472
4628.732277,0.31195
4645.322713,0.30881
4662.032504,0.30546
4678.862943,0.30182
4695.815342,0.29795
4712.891054,0.29381
4730.091384,0.28966
4747.417723,0.28562
4764.871462,0.2816
4782.45401,0.27792
4800.1668,0.2748
4818.011283,0.27162
4835.988934,0.26764
4854.101273,0.2631
4872.349771,0.25875
4890.735994,0.25445
4909.261506,0.25011
4927.927896,0.24575
4946.736778,0.24147
4965.68979,0.23742
4984.788594,0.23357
5004.034903,0.2299
5023.430384,0.22656
5042.976803,0.22371
5062.675928,0.22094
5082.529556,0.21798
5102.539511,0.21523
5122.707649,0.21275
5143.03585,0.21013
5163.526056,0.20714
5184.180157,0.20386
5205.000154,0.20041
5225.988055,0.19713
5247.145898,0.19455
5268.475756,0.19283
5289.979735,0.19218
5311.659976,0.19291
5333.518684,0.19451
5355.558014,0.19658
5377.780242,0.19876
5400.187657,0.20025
5422.78258,0.20131
5445.567377,0.20272
5468.544451,0.20462
5491.716246,0.20622
5515.085278,0.20675
5538.654014,0.2059
5562.425058,0.20389
5586.401024,0.2013
5610.584574,0.19877
5634.978416,0.19624
5659.585305,0.19415
5684.408043,0.19244
5709.449517,0.19044
5734.712564,0.18796
5760.200171,0.18493
5785.915346,0.18179
5811.861151,0.17845
5838.040701,0.17448
5864.457171,0.17012
5891.11379,0.16425
5918.013883,0.15771
5945.160732,0.15114
5972.557781,0.14568
6000.208507,0.14231
6028.116449,0.14019
6056.285213,0.13789
6084.718472,0.13575
6113.41997,0.13406
6142.393557,0.13227
6171.643046,0.1309
6201.172433,0.13076
6230.985758,0.13143
6261.087133,0.13231
6291.480755,0.13346
6322.1709,0.13498
6353.161929,0.1367
6384.458328,0.13784
6416.064553,0.13799
6447.985267,0.13744
6480.225188,0.1359
6512.789128,0.13351
6545.681997,0.13156
6578.908804,0.13035
6612.47466,0.12991
6646.384825,0.12958
6680.644535,0.12915
6715.259268,0.12862
6750.234571,0.12782
6785.576107,0.12639
6821.28966,0.12468
6857.381134,0.12308
6893.856559,0.12155
6930.722144,0.11992
6967.984085,0.11799
7005.648858,0.11607
7043.72303,0.11412
7082.213314,0.11203
7121.126567,0.10977
7160.469802,0.10709
7200.250183,0.10451
7240.47509,0.10167
7281.15191,0.09815
7322.288355,0.09424
7363.892259,0.09004
7405.971636,0.08572
7448.534685,0.08119
7491.589791,0.07655
7535.145539,0.07219
7579.210768,0.0678
7623.794353,0.06326
7668.905555,0.05852
7714.553795,0.05389
7760.74872,0.04961
7807.500211,0.04528
7854.818386,0.04066
7902.713612,0.03595
7951.196573,0.03184
8000.278026,0.02869
8049.969186,0.02601
8100.281485,0.02379
8151.226643,0.02238
8202.816677,0.02155
8255.063908,0.02104
8307.980976,0.02079
8361.580914,0.0208
8415.876885,0.02115
8470.882607,0.02186
8526.612089,0.02277
8583.07971,0.02363
8640.300232,0.02439
8698.288814,0.02533
8757.061026,0.0263
8816.632938,0.02765
8877.020825,0.03035
8938.241648,0.03431
9000.312761,0.03762
9063.252001,0.03925
9127.077709,0.03954
9191.808745,0.0389
9257.464511,0.0378
9324.065051,0.03659
9391.630729,0.03556
9460.182767,0.03526
9529.742923,0.03561
9600.3336,0.03626
9671.977869,0.03698
9744.699495,0.03707
9818.522964,0.03619
9893.473606,0.03511
9969.577237,0.03478
10046.86077,0.03504
10125.35186,0.03535
10205.07902,0.03561
10286.0717,0.03644
10368.36026,0.03814
10451.97605,0.03984
10536.95157,0.04088
10623.32001,0.04171
10711.11603,0.04229
10800.37531,0.04169
10891.13475,0.04025
10983.43249,0.03998
11077.30797,0.04192
11172.80199,0.04437
11269.9569,0.04574
11368.81615,0.04591
11469.42513,0.04527
11571.83069,0.04488
11676.0814,0.04497
11782.22758,0.04513
11890.32139,0.04565
12000.41694,0.04748
12112.5705,0.04989
12226.84001,0.05099
12343.28609,0.05025
12461.97152,0.04768
12582.96151,0.04372
12706.32386,0.03961
12832.12902,0.03631
12960.45029,0.03431
13091.36408,0.03293
13224.94941,0.03147
13361.28907,0.02969
13500.46914,0.02721
13642.57932,0.02554
13787.71312,0.02592
13935.96807,0.02681
14087.44596,0.02646
14242.25324,0.02484
14400.50047,0.02313
14562.30382,0.02209
14727.78452,0.02101
14897.06937,0.02018
15070.29108,0.02089
15247.58859,0.0221
15429.10747,0.02307
15615.00054,0.0246
15805.42735,0.02636
16000.55605,0.0275
16200.56297,0.02807
16405.63335,0.02912
16615.96195,0.0313
16831.75363,0.0339
17053.22403,0.03547
17280.60061,0.03549
17514.12221,0.03504
17754.04165,0.03592
18000.62552,0.03865
18254.15542,0.04162
18514.92902,0.04402
18783.26128,0.04578
19059.48566,0.04762
19343.95592,0.0495
19637.04612,0.04997
19939.15447,0.04969
20250.70371,0.04848
20572.1434,0.04576
20903.95211,0.04381
21246.63979,0.0426
21600.75039,0.04069
21966.86522,0.0389
22345.60422,0.03921
22737.6323,0.03951
23143.66139,0.03734
23564.45516,0.03563
24000.83388,0.03543
24453.67973,0.0358
24923.94272,0.04263
25412.64804,0.01435
