Database of Origin,University of Winnipeg Spectrophotometer Facility
Sample Description,"HOSERLab master pyroxenes, FTIR data"
Date Added,2016-12-14 03:34:49.507585

Data ID,FTIR_PYX_01         
Sample ID,PYX003
Mineral Name,Orthopyroxene
Grain Size,<45 um
Viewing Geometry,"i=30, e=0"
Material Class,Inosilicate

Wavelength
2000.56,0.41963358
2001.142,0.41999653
2001.725,0.42034958
2002.307,0.42070223
2002.891,0.42101712
2003.474,0.42134861
2004.058,0.42176896
2004.643,0.422182
2005.227,0.42243298
2005.812,0.42255673
2006.397,0.42271784
2006.983,0.4230166
2007.569,0.42348017
2008.155,0.42408975
2008.742,0.42468756
2009.329,0.4250573
2009.916,0.42518972
2010.504,0.42530308
2011.092,0.42557211
2011.68,0.42600008
2012.269,0.42651396
2012.858,0.42703529
2013.447,0.42749063
2014.037,0.4278722
2014.627,0.42823147
2015.217,0.42858512
2015.808,0.42889942
2016.399,0.42917579
2016.99,0.42946899
2017.582,0.42984389
2018.174,0.43032996
2018.766,0.43086781
2019.359,0.43132363
2019.952,0.4316522
2020.546,0.43195123
2021.139,0.43229023
2021.733,0.43261592
2022.328,0.43292148
2022.923,0.43328191
2023.518,0.43366348
2024.113,0.43394475
2024.709,0.43416886
2025.305,0.43449418
2025.902,0.43494434
2026.499,0.43543865
2027.096,0.43596774
2027.693,0.43647721
2028.291,0.4368067
2028.89,0.4369693
2029.488,0.43722861
2030.087,0.43768311
2030.686,0.43811646
2031.286,0.43838623
2031.886,0.43861262
2032.486,0.43890161
2033.087,0.43926015
2033.688,0.43976124
2034.289,0.44044059
2034.891,0.44110438
2035.493,0.44156251
2036.096,0.44188619
2036.698,0.44221294
2037.302,0.44254266
2037.905,0.44289643
2038.509,0.44335571
2039.113,0.4438279
2039.718,0.4441173
2040.322,0.44429288
2040.928,0.44461474
2041.533,0.44512237
2042.139,0.44562821
2042.746,0.44604699
2043.352,0.44642863
2043.959,0.44678768
2044.567,0.44713886
2045.174,0.44756288
2045.782,0.44805178
2046.391,0.44848121
2047.0,0.44881747
2047.609,0.44915089
2048.218,0.44947804
2048.828,0.4497144
2049.438,0.44992714
2050.049,0.45030819
2050.66,0.45089671
2051.271,0.45154204
2051.883,0.45212053
2052.495,0.45260564
2053.107,0.45295586
2053.72,0.45315805
2054.333,0.45334698
2054.947,0.45370289
2055.56,0.45423417
2056.175,0.45482104
2056.789,0.45541935
2057.404,0.45606019
2058.019,0.45668446
2058.635,0.45719127
2059.251,0.45760943
2059.867,0.45802238
2060.484,0.45836759
2061.101,0.45856503
2061.718,0.45873947
2062.336,0.4590629
2062.954,0.45948336
2063.573,0.45989236
2064.192,0.46038745
2064.811,0.46107011
2065.431,0.4617663
2066.051,0.46228581
2066.671,0.4627259
2067.292,0.46322601
2067.913,0.46369363
2068.534,0.46405299
2069.156,0.4644423
2069.778,0.46492972
2070.401,0.46536497
2071.024,0.46569354
2071.647,0.46605076
2072.271,0.46644479
2072.895,0.46673744
2073.519,0.46698683
2074.144,0.46738257
2074.769,0.46784959
2075.395,0.46815034
2076.02,0.46833071
2076.647,0.46863693
2077.273,0.46906809
2077.9,0.46943049
2078.528,0.46973287
2079.155,0.47013559
2079.784,0.47063758
2080.412,0.471145
2081.041,0.4717044
2081.67,0.47237581
2082.3,0.4730472
2082.93,0.47361952
2083.56,0.47419067
2084.191,0.47483983
2084.822,0.47545333
2085.454,0.47591399
2086.085,0.47627749
2086.718,0.47663159
2087.35,0.47698107
2087.983,0.47733915
2088.617,0.47775697
2089.251,0.47821677
2089.885,0.47866838
2090.519,0.47914914
2091.154,0.47972074
2091.789,0.48030447
2092.425,0.4807486
2093.061,0.48102862
2093.697,0.48127274
2094.334,0.48160828
2094.971,0.48205529
2095.609,0.48254288
2096.247,0.48302949
2096.885,0.48358232
2097.524,0.48427911
2098.163,0.48502914
2098.803,0.4856262
2099.443,0.48600173
2100.083,0.48626613
2100.723,0.48651711
2101.364,0.48678492
2102.006,0.48712501
2102.648,0.48756826
2103.29,0.48804374
2103.932,0.48852778
2104.575,0.48911487
2105.219,0.48979056
2105.862,0.49035033
2106.506,0.49070296
2107.151,0.49100366
2107.796,0.49137914
2108.441,0.4917944
2109.087,0.49226842
2109.733,0.49288441
2110.379,0.49355072
2111.026,0.49405516
2111.673,0.4944055
2112.321,0.49480822
2112.969,0.49534397
2113.617,0.49591993
2114.266,0.49647314
2114.915,0.49698893
2115.565,0.49742535
2116.215,0.4977902
2116.865,0.49821083
2117.516,0.49879393
2118.167,0.49949667
2118.819,0.50020535
2119.471,0.50085308
2120.123,0.50141776
2120.776,0.50187089
2121.429,0.50220599
2122.082,0.50250175
2122.736,0.50289221
2123.391,0.50340705
2124.045,0.50391331
2124.7,0.5043088
2125.356,0.50466978
2126.012,0.50507172
2126.668,0.5054291
2127.325,0.50569119
2127.982,0.50598258
2128.64,0.5063765
2129.297,0.50679511
2129.956,0.50727855
2130.614,0.50800764
2131.274,0.50891394
2131.933,0.50965744
2132.593,0.5101011
2133.253,0.51041963
2133.914,0.510725
2134.575,0.51101187
2135.237,0.51139876
2135.899,0.51198524
2136.561,0.51260226
2137.224,0.51307267
2137.887,0.51352337
2138.55,0.5141113
2139.214,0.51473147
2139.879,0.51525609
2140.544,0.51574445
2141.209,0.51622296
2141.874,0.51660104
2142.54,0.51690584
2143.207,0.51728972
2143.873,0.51776048
2144.541,0.51820056
2145.208,0.51858531
2145.876,0.51895098
2146.545,0.51925903
2147.214,0.51951244
2147.883,0.51982788
2148.553,0.52028178
2149.223,0.52083755
2149.893,0.52143054
2150.564,0.52197918
2151.235,0.52240923
2151.907,0.52278331
2152.579,0.52325121
2153.252,0.52377674
2153.925,0.52416997
2154.598,0.52442955
2155.272,0.5247545
2155.946,0.52522842
2156.621,0.5257851
2157.296,0.52638544
2157.972,0.52694945
2158.647,0.52729146
2159.324,0.52741723
2160.001,0.52764735
2160.678,0.52818197
2161.355,0.52883125
2162.033,0.52937327
2162.712,0.52982335
2163.39,0.53019774
2164.07,0.53042986
2164.749,0.5306549
2165.429,0.5311491
2166.11,0.53189591
2166.791,0.53260174
2167.472,0.53314874
2168.154,0.53363263
2168.836,0.53400836
2169.519,0.53415358
2170.202,0.53421856
2170.885,0.53447591
2171.569,0.53491004
2172.254,0.53533533
2172.938,0.53578858
2173.624,0.53642164
2174.309,0.53717132
2174.995,0.53789651
2175.682,0.53864231
2176.368,0.53945136
2177.056,0.54014413
2177.743,0.54058219
2178.432,0.54090556
2179.12,0.54124381
2179.809,0.54148452
2180.499,0.54157919
2181.189,0.54175181
2181.879,0.54219093
2182.57,0.54281134
2183.261,0.54346417
2183.952,0.54410799
2184.644,0.54467059
2185.337,0.54506401
2186.03,0.54538051
2186.723,0.54580781
2187.417,0.54633319
2188.111,0.54678748
2188.806,0.54712238
2189.501,0.54741617
2190.196,0.5476878
2190.892,0.54792698
2191.589,0.54822516
2192.285,0.54868718
2192.983,0.54926748
2193.68,0.54984002
2194.379,0.55036147
2195.077,0.55086875
2195.776,0.55138209
2196.476,0.55189786
2197.175,0.55244729
2197.876,0.55308569
2198.577,0.55380122
2199.278,0.5544833
2199.979,0.55501063
2200.682,0.55536638
2201.384,0.55564203
2202.087,0.55594429
2202.79,0.55631975
2203.494,0.55673039
2204.199,0.55710649
2204.903,0.55746177
2205.609,0.5579014
2206.314,0.5584722
2207.02,0.55908177
2207.727,0.55963616
2208.434,0.56014597
2209.141,0.56063498
2209.849,0.56108023
2210.557,0.56149561
2211.266,0.56192212
2211.975,0.56232959
2212.685,0.56268892
2213.395,0.56306508
2214.106,0.56348173
2214.817,0.5638428
2215.528,0.56412288
2216.24,0.56443025
2216.952,0.56478287
2217.665,0.56510862
2218.379,0.56547827
2219.092,0.56599679
2219.806,0.56651737
2220.521,0.56683838
2221.236,0.56703701
2221.952,0.56723999
2222.668,0.56734324
2223.384,0.56733125
2224.101,0.56749229
2224.818,0.56797515
2225.536,0.5685621
2226.254,0.56909486
2226.973,0.56964672
2227.692,0.57017584
2228.412,0.57054065
2229.132,0.57082697
2229.853,0.57114283
2230.574,0.57128477
2231.295,0.57110108
2232.017,0.57087601
2232.74,0.57090531
2233.462,0.57111955
2234.186,0.57142952
2234.91,0.57192889
2235.634,0.5725221
2236.359,0.5729261
2237.084,0.5731533
2237.809,0.57346193
2238.536,0.57386914
2239.262,0.5742097
2239.989,0.5744773
2240.717,0.57469907
2241.445,0.57476659
2242.173,0.5747227
2242.902,0.57482022
2243.631,0.57510693
2244.361,0.575386
2245.092,0.57562525
2245.822,0.57594805
2246.554,0.57630124
2247.285,0.57656922
2248.017,0.57685991
2248.75,0.57729448
2249.483,0.57777098
2250.217,0.57819687
2250.951,0.57863686
2251.686,0.57908159
2252.421,0.5794192
2253.156,0.57968554
2253.892,0.58000477
2254.628,0.5803496
2255.365,0.58066401
2256.103,0.58103704
2256.841,0.5815243
2257.579,0.58202208
2258.318,0.58247356
2259.057,0.58293732
2259.797,0.58340111
2260.537,0.58379087
2261.278,0.58413492
2262.019,0.5844961
2262.761,0.58484917
2263.503,0.58518225
2264.246,0.58552808
2264.989,0.58581815
2265.732,0.58595113
2266.477,0.58599621
2267.221,0.5861005
2267.966,0.58629113
2268.712,0.58658403
2269.458,0.58704947
2270.204,0.5875994
2270.951,0.58800134
2271.699,0.58822821
2272.447,0.58846136
2273.195,0.58871685
2273.944,0.58887824
2274.694,0.58901982
2275.444,0.58927439
2276.194,0.58952625
2276.945,0.58964224
2277.696,0.58975709
2278.448,0.58999452
2279.201,0.59023244
2279.954,0.59042467
2280.707,0.59074123
2281.461,0.59114732
2282.215,0.59133233
2282.97,0.59125121
2283.725,0.59122441
2284.481,0.59137141
2285.237,0.59148433
2285.994,0.59153238
2286.752,0.59173506
2287.509,0.5921105
2288.268,0.59246189
2289.026,0.59275602
2289.786,0.59305932
2290.545,0.5932465
2291.306,0.59322053
2292.067,0.59322133
2292.828,0.59348184
2293.59,0.59383188
2294.352,0.59403175
2295.115,0.59416965
2295.878,0.59436218
2296.642,0.59444158
2297.406,0.5943218
2298.171,0.59426825
2298.936,0.59448045
2299.702,0.59479258
2300.468,0.59504232
2301.235,0.59531548
2302.002,0.5956382
2302.77,0.59586174
2303.539,0.59599818
2304.307,0.59624638
2305.077,0.59660936
2305.847,0.59689437
2306.617,0.59709671
2307.388,0.59738507
2308.159,0.59774531
2308.931,0.59800267
2309.703,0.59812055
2310.476,0.59819094
2311.25,0.59822643
2312.024,0.59820056
2312.798,0.59818686
2313.573,0.59828053
2314.348,0.59850272
2315.124,0.59883571
2315.901,0.5992353
2316.678,0.59959289
2317.455,0.59980687
2318.234,0.59987895
2319.012,0.59989072
2319.791,0.59993053
2320.571,0.60006578
2321.351,0.60030457
2322.131,0.60060083
2322.913,0.60092952
2323.694,0.60129072
2324.476,0.6016389
2325.259,0.60192854
2326.042,0.60221356
2326.826,0.60254755
2327.61,0.60284206
2328.395,0.60301365
2329.18,0.60317335
2329.966,0.60346898
2330.753,0.60384816
2331.54,0.60417268
2332.327,0.60443955
2333.115,0.60474352
2333.903,0.60511881
2334.692,0.6055239
2335.482,0.60589045
2336.272,0.60614936
2337.062,0.60629656
2337.854,0.60643917
2338.645,0.6067151
2339.437,0.60716308
2340.23,0.60768988
2341.023,0.60815698
2341.817,0.60851328
2342.611,0.60881628
2343.406,0.60909622
2344.201,0.60929491
2344.997,0.60942229
2345.794,0.60959567
2346.591,0.60982704
2347.388,0.61001373
2348.186,0.61023037
2348.985,0.61067914
2349.784,0.61127198
2350.583,0.61169827
2351.384,0.611919
2352.184,0.61212973
2352.986,0.61231355
2353.787,0.61236911
2354.59,0.6124808
2355.393,0.61281332
2356.196,0.61314917
2357.0,0.61332216
2357.804,0.61356532
2358.609,0.61396404
2359.415,0.6141758
2360.221,0.61408501
2361.028,0.61404622
2361.835,0.61418994
2362.643,0.61425522
2363.451,0.61425374
2364.26,0.61448088
2365.069,0.61486977
2365.879,0.61511232
2366.69,0.61527204
2367.501,0.6155491
2368.312,0.61575687
2369.125,0.61568609
2369.937,0.61554651
2370.751,0.61551454
2371.564,0.61541556
2372.379,0.6152378
2373.194,0.61528643
2374.009,0.61557191
2374.825,0.61574412
2375.642,0.61575049
2376.459,0.615864
2377.276,0.61610336
2378.095,0.61627398
2378.913,0.61639937
2379.733,0.61654294
2380.553,0.6165243
2381.373,0.61630541
2382.194,0.61623176
2383.016,0.6165224
2383.838,0.61697898
2384.661,0.61741369
2385.484,0.61784733
2386.308,0.6181912
2387.132,0.61828725
2387.957,0.61826037
2388.783,0.6183392
2389.609,0.61845569
2390.435,0.61845777
2391.263,0.61845893
2392.09,0.61857642
2392.919,0.61867176
2393.748,0.61868968
2394.577,0.61884463
2395.407,0.61919575
2396.238,0.61947725
2397.069,0.61956097
2397.901,0.61959653
2398.733,0.61962964
2399.566,0.61957185
2400.399,0.61955259
2401.233,0.61978538
2402.068,0.62017566
2402.903,0.62049952
2403.739,0.62080245
2404.575,0.62119784
2405.412,0.6215472
2406.25,0.62172298
2407.088,0.62185225
2407.926,0.62199338
2408.766,0.62197782
2409.606,0.6218228
2410.446,0.62184317
2411.287,0.62216764
2412.128,0.62259088
2412.971,0.62297976
2413.813,0.62337386
2414.657,0.62371843
2415.5,0.62393086
2416.345,0.62413327
2417.19,0.62444818
2418.036,0.62474672
2418.882,0.62488467
2419.729,0.62492182
2420.576,0.62490771
2421.424,0.62480482
2422.272,0.6247177
2423.122,0.62482581
2423.971,0.6250667
2424.822,0.62525425
2425.673,0.62539696
2426.524,0.62558145
2427.376,0.62574832
2428.229,0.62586541
2429.082,0.62604137
2429.936,0.62627057
2430.791,0.62641021
2431.646,0.62647403
2432.501,0.62657797
2433.358,0.62664821
2434.214,0.62658133
2435.072,0.62652429
2435.93,0.62662075
2436.789,0.62673452
2437.648,0.62675893
2438.508,0.62682273
2439.368,0.62696871
2440.229,0.62703949
2441.091,0.62704207
2441.953,0.62718719
2442.816,0.62747902
2443.679,0.62769599
2444.543,0.62775767
2445.408,0.62774397
2446.273,0.62767863
2447.139,0.62761518
2448.006,0.62772182
2448.873,0.62800927
2449.74,0.62821412
2450.609,0.6281552
2451.478,0.62795879
2452.347,0.62780858
2453.217,0.62772683
2454.088,0.62768162
2454.959,0.62769776
2455.831,0.62779479
2456.704,0.62791855
2457.577,0.62797315
2458.451,0.62790537
2459.325,0.62776781
2460.2,0.62764774
2461.076,0.62757651
2461.952,0.62759115
2462.829,0.62776843
2463.707,0.62806071
2464.585,0.62825546
2465.464,0.62826052
2466.343,0.62821203
2467.223,0.6281918
2468.104,0.6281441
2468.985,0.6281364
2469.867,0.62830606
2470.749,0.62853781
2471.632,0.62862858
2472.516,0.62867103
2473.4,0.62882236
2474.285,0.62893788
2475.171,0.62887909
2476.057,0.62884839
2476.944,0.62897697
2477.832,0.62902234
2478.72,0.62885289
2479.608,0.62874116
2480.498,0.62888166
2481.388,0.62913223
2482.278,0.62939236
2483.17,0.629674
2484.062,0.62977728
2484.954,0.62949396
2485.847,0.62906983
2486.741,0.62892754
2487.636,0.62911418
2488.531,0.62943555
2489.427,0.62983253
2490.323,0.63021384
2491.22,0.63031383
2492.118,0.63009222
2493.016,0.62988512
2493.915,0.62991701
2494.814,0.63005853
2495.715,0.63017395
2496.615,0.63026737
2497.517,0.63026635
2498.419,0.63009071
2499.322,0.62990722
2500.225,0.6299302
2501.129,0.63009495
2502.034,0.63024091
2502.939,0.63040171
2503.845,0.63060013
2504.752,0.63065667
2505.659,0.63050419
2506.567,0.63037567
2507.476,0.63042011
2508.385,0.63049072
2509.295,0.63050375
2510.206,0.63059517
2511.117,0.63079167
2512.029,0.63093717
2512.942,0.63102385
2513.855,0.63115365
2514.769,0.63121194
2515.683,0.63105538
2516.598,0.63086781
2517.514,0.63083905
2518.431,0.63077643
2519.348,0.63052726
2520.266,0.63037976
2521.184,0.63055683
2522.103,0.63078202
2523.023,0.63078017
2523.944,0.63066036
2524.865,0.63048957
2525.787,0.63014528
2526.709,0.6298033
2527.632,0.62982657
2528.556,0.63013308
2529.48,0.63034764
2530.406,0.63045758
2531.331,0.63065936
2532.258,0.63086097
2533.185,0.63097791
2534.113,0.63125016
2535.041,0.63169294
2535.971,0.63188836
2536.9,0.63171531
2537.831,0.63156903
2538.762,0.63163527
2539.694,0.63172827
2540.627,0.63179214
2541.56,0.63188783
2542.494,0.63190049
2543.428,0.6318433
2544.364,0.63200523
2545.3,0.63235095
2546.236,0.63246453
2547.174,0.63229638
2548.112,0.63225021
2549.05,0.63245259
2549.99,0.63269603
2550.93,0.63291003
2551.87,0.63301417
2552.812,0.63275858
2553.754,0.63222578
2554.697,0.63183813
2555.64,0.63161268
2556.585,0.63128767
2557.529,0.63110389
2558.475,0.63153832
2559.421,0.63244251
2560.368,0.63330008
2561.316,0.63397303
2562.264,0.63433904
2563.213,0.63395537
2564.163,0.63304929
2565.113,0.63253948
2566.065,0.63270945
2567.016,0.6330322
2567.969,0.63324606
2568.922,0.63348135
2569.876,0.63361268
2570.831,0.63348866
2571.786,0.63346861
2572.742,0.63377686
2573.699,0.63395823
2574.656,0.6337541
2575.615,0.63352092
2576.573,0.63343267
2577.533,0.63323462
2578.493,0.63304388
2579.454,0.63319818
2580.416,0.63361776
2581.378,0.63401706
2582.342,0.63439818
2583.305,0.63466897
2584.27,0.63453775
2585.235,0.63419006
2586.201,0.63402321
2587.168,0.63389217
2588.135,0.63342272
2589.103,0.63288198
2590.072,0.6327507
2591.042,0.63328517
2592.012,0.63474569
2592.983,0.63720903
2593.955,0.63933895
2594.927,0.63895225
2595.9,0.6365186
2596.874,0.63434144
2597.849,0.63305406
2598.824,0.63237014
2599.8,0.63237222
2600.777,0.63292587
2601.755,0.63348605
2602.733,0.63400181
2603.712,0.63491009
2604.692,0.63569391
2605.672,0.63540059
2606.653,0.63444248
2607.635,0.63379424
2608.618,0.63331397
2609.601,0.63265171
2610.585,0.63228116
2611.57,0.6324407
2612.556,0.63263998
2613.542,0.63282033
2614.529,0.63351047
2615.517,0.63446243
2616.505,0.63478572
2617.495,0.63457045
2618.485,0.6344649
2619.475,0.63410354
2620.467,0.63298249
2621.459,0.63175769
2622.452,0.63110764
2623.446,0.63088601
2624.44,0.63098593
2625.435,0.63160853
2626.431,0.63247276
2627.428,0.63306999
2628.426,0.63363564
2629.424,0.63439417
2630.423,0.63461931
2631.423,0.63382151
2632.423,0.63274231
2633.424,0.6319379
2634.426,0.63121445
2635.429,0.63062484
2636.432,0.63048919
2637.437,0.63054923
2638.442,0.63041917
2639.447,0.63031935
2640.454,0.63043646
2641.461,0.6304078
2642.469,0.63019529
2643.478,0.63033856
2644.488,0.63075515
2645.498,0.63071145
2646.509,0.63018985
2647.521,0.62983467
2648.534,0.62974307
2649.547,0.6297475
2650.561,0.63011135
2651.576,0.63083775
2652.592,0.63118508
2653.609,0.63083373
2654.626,0.63037915
2655.644,0.63007979
2656.663,0.62969861
2657.682,0.62947816
2658.703,0.62974081
2659.724,0.62995824
2660.746,0.62962168
2661.768,0.62942428
2662.792,0.63015162
2663.816,0.63148558
2664.841,0.63268624
2665.867,0.63342747
2666.894,0.63357339
2667.921,0.63319904
2668.949,0.63284195
2669.978,0.63247413
2671.008,0.63114804
2672.038,0.62890584
2673.07,0.62732785
2674.102,0.62724154
2675.135,0.62800039
2676.168,0.628566
2677.203,0.62827832
2678.238,0.62671337
2679.274,0.62406048
2680.311,0.62136063
2681.349,0.61928501
2682.387,0.61740726
2683.426,0.6150524
2684.467,0.6121178
2685.507,0.60860372
2686.549,0.60421631
2687.591,0.59904865
2688.635,0.59375555
2689.679,0.58883675
2690.724,0.58450972
2691.769,0.58100359
2692.816,0.57818445
2693.863,0.57519476
2694.911,0.5713526
2695.96,0.56715062
2697.01,0.56346159
2698.06,0.56060797
2699.112,0.55855585
2700.164,0.55693276
2701.217,0.55492279
2702.27,0.55201285
2703.325,0.54856366
2704.38,0.54503717
2705.437,0.54153626
2706.494,0.53841529
2707.552,0.5362066
2708.61,0.53452347
2709.67,0.53174273
2710.73,0.52639143
2711.791,0.51858202
2712.853,0.50972187
2713.916,0.50113032
2714.98,0.49334763
2716.044,0.48624594
2717.109,0.47986227
2718.175,0.475015
2719.242,0.4723624
2720.31,0.47106927
2721.379,0.46986286
2722.448,0.4687491
2723.518,0.46767007
2724.589,0.4653235
2725.661,0.46082962
2726.734,0.45492981
2727.808,0.44859095
2728.882,0.4422669
2729.958,0.4368222
2731.034,0.43338089
2732.111,0.43199429
2733.188,0.43166395
2734.267,0.43152804
2735.347,0.43118594
2736.427,0.4304705
2737.508,0.42975425
2738.59,0.42963142
2739.673,0.42949489
2740.757,0.42738783
2741.841,0.42301458
2742.927,0.41857907
2744.013,0.41563346
2745.1,0.41402204
2746.188,0.41321654
2747.277,0.41286347
2748.367,0.41248172
2749.457,0.41166341
2750.549,0.41066098
2751.641,0.41011731
2752.734,0.41020388
2753.828,0.41045893
2754.923,0.41021385
2756.019,0.40905254
2757.115,0.40719806
2758.213,0.40537359
2759.311,0.40412565
2760.41,0.40351509
2761.51,0.40316346
2762.611,0.40260447
2763.713,0.40177408
2764.816,0.40104207
2765.919,0.40066523
2767.024,0.4005604
2768.129,0.40061007
2769.235,0.40079385
2770.342,0.40093812
2771.45,0.40076056
2772.559,0.40026291
2773.669,0.39976435
2774.779,0.3994529
2775.891,0.39924385
2777.003,0.39904759
2778.116,0.39888898
2779.23,0.3987201
2780.345,0.39840251
2781.461,0.39795886
2782.578,0.39761731
2783.696,0.39752964
2784.814,0.39762346
2785.934,0.39769394
2787.054,0.39752523
2788.175,0.39698035
2789.297,0.39611598
2790.42,0.39512753
2791.544,0.39418688
2792.669,0.39334935
2793.795,0.39259181
2794.922,0.39188894
2796.049,0.39126723
2797.178,0.39072244
2798.307,0.39015502
2799.437,0.38951362
2800.568,0.38891289
2801.7,0.38840269
2802.833,0.38773695
2803.967,0.38669818
2805.102,0.38557444
2806.238,0.38475616
2807.374,0.38418912
2808.512,0.38371299
2809.65,0.38344666
2810.789,0.38350833
2811.93,0.38373007
2813.071,0.38394275
2814.213,0.38421014
2815.356,0.38456555
2816.5,0.38487368
2817.645,0.38508887
2818.791,0.38529298
2819.937,0.38543184
2821.085,0.38538853
2822.233,0.38528643
2823.383,0.38533838
2824.533,0.38549295
2825.685,0.38552353
2826.837,0.38530719
2827.99,0.38488988
2829.144,0.38441391
2830.299,0.38402551
2831.455,0.38372232
2832.612,0.38334547
2833.77,0.38280443
2834.929,0.38219644
2836.089,0.38164561
2837.25,0.38121443
2838.411,0.38091754
2839.574,0.38063001
2840.737,0.38017382
2841.902,0.37969532
2843.067,0.37956728
2844.234,0.37975556
2845.401,0.37978991
2846.569,0.37949945
2847.739,0.37919261
2848.909,0.37902672
2850.08,0.3788945
2851.252,0.37891202
2852.425,0.3792405
2853.599,0.37953741
2854.774,0.37937983
2855.95,0.37898987
2857.127,0.3788077
2858.305,0.37877253
2859.484,0.37872659
2860.664,0.37888735
2861.844,0.37929491
2863.026,0.37947798
2864.209,0.37917781
2865.392,0.37869444
2866.577,0.3781862
2867.763,0.37747154
2868.949,0.37668747
2870.137,0.37627658
2871.325,0.37620658
2872.515,0.37603439
2873.705,0.37568181
2874.897,0.37541492
2876.089,0.37520746
2877.283,0.37486665
2878.477,0.37452373
2879.673,0.37441953
2880.869,0.37443223
2882.066,0.37430249
2883.265,0.37403279
2884.464,0.37375724
2885.664,0.37349268
2886.866,0.37325715
2888.068,0.37314454
2889.271,0.37313377
2890.476,0.37303348
2891.681,0.37270472
2892.887,0.37219445
2894.095,0.37164004
2895.303,0.37113728
2896.512,0.37072299
2897.723,0.37041361
2898.934,0.37022342
2900.146,0.37011048
2901.36,0.36997348
2902.574,0.36977726
2903.789,0.36961093
2905.006,0.36951205
2906.223,0.36937776
2907.441,0.3691344
2908.661,0.36883806
2909.881,0.36851929
2911.103,0.36814626
2912.325,0.36782525
2913.549,0.36778174
2914.773,0.36804679
2915.999,0.36836934
2917.225,0.36849546
2918.453,0.36836144
2919.681,0.36801808
2920.911,0.36757232
2922.142,0.36718343
2923.373,0.36692403
2924.606,0.36668683
2925.84,0.36635858
2927.075,0.36598706
2928.31,0.36570836
2929.547,0.3655865
2930.785,0.36559637
2932.024,0.36569461
2933.264,0.36586343
2934.505,0.36609225
2935.747,0.36633949
2936.99,0.36652944
2938.234,0.36663534
2939.479,0.36669691
2940.726,0.36672846
2941.973,0.36672939
2943.221,0.36683222
2944.471,0.36723551
2945.721,0.36788625
2946.973,0.36844322
2948.225,0.36865156
2949.479,0.36857597
2950.733,0.36843558
2951.989,0.36842902
2953.246,0.36869783
2954.504,0.36918448
2955.763,0.36955629
2957.023,0.36955034
2958.284,0.36931258
2959.546,0.36914399
2960.809,0.36909376
2962.073,0.36910893
2963.339,0.3693423
2964.605,0.36992813
2965.873,0.37065258
2967.141,0.37120828
2968.411,0.37157789
2969.681,0.37189237
2970.953,0.37216755
2972.226,0.37245544
2973.5,0.37292874
2974.775,0.37355446
2976.051,0.37400685
2977.328,0.3741172
2978.607,0.37407825
2979.886,0.37407767
2981.167,0.37409427
2982.448,0.37415103
2983.731,0.3743519
2985.015,0.37461473
2986.3,0.37476758
2987.586,0.3749178
2988.873,0.37533131
2990.161,0.3759678
2991.45,0.37650893
2992.74,0.37679224
2994.032,0.37691281
2995.324,0.37699536
2996.618,0.37714112
2997.913,0.37746999
2999.209,0.37799647
3000.506,0.37856156
3001.804,0.37899876
3003.103,0.37925173
3004.404,0.37932986
3005.705,0.37930619
3007.008,0.37932816
3008.312,0.37949715
3009.616,0.37979593
3010.922,0.3801814
3012.23,0.38062036
3013.538,0.38102359
3014.847,0.38131475
3016.158,0.38152352
3017.469,0.38168614
3018.782,0.3817871
3020.096,0.38190093
3021.411,0.38216434
3022.727,0.38251677
3024.044,0.38277212
3025.363,0.38298963
3026.683,0.38342451
3028.003,0.38411175
3029.325,0.38487771
3030.648,0.38564709
3031.972,0.38633391
3033.298,0.38663909
3034.624,0.386406
3035.952,0.38596013
3037.281,0.38572183
3038.611,0.38576047
3039.942,0.38602339
3041.274,0.38657233
3042.607,0.38729312
3043.942,0.38782259
3045.278,0.38801212
3046.615,0.38806393
3047.953,0.38809984
3049.292,0.38805321
3050.632,0.38800136
3051.974,0.38813267
3053.317,0.38837995
3054.661,0.38851591
3056.006,0.38855931
3057.352,0.38872172
3058.7,0.3890631
3060.048,0.38950556
3061.398,0.39004065
3062.749,0.39065621
3064.101,0.39119369
3065.455,0.39147237
3066.809,0.39147372
3068.165,0.39131496
3069.522,0.39114943
3070.88,0.3911212
3072.239,0.39132132
3073.6,0.39173116
3074.962,0.39224096
3076.325,0.39272999
3077.689,0.39315256
3079.054,0.39353912
3080.421,0.39389481
3081.788,0.3941481
3083.157,0.39430589
3084.527,0.394547
3085.899,0.39499026
3087.271,0.39548155
3088.645,0.39579468
3090.02,0.39590781
3091.396,0.39590759
3092.774,0.39581521
3094.153,0.39571085
3095.532,0.39581119
3096.914,0.39621961
3098.296,0.39679963
3099.679,0.3973928
3101.064,0.39790818
3102.45,0.3981818
3103.837,0.39809266
3105.226,0.39784609
3106.616,0.39780892
3108.007,0.3980619
3109.399,0.39843105
3110.792,0.39886081
3112.187,0.39941115
3113.583,0.39999073
3114.98,0.40042637
3116.378,0.40070698
3117.778,0.4009174
3119.179,0.40106691
3120.581,0.40118276
3121.985,0.40139589
3123.389,0.40176862
3124.795,0.40221313
3126.202,0.40267507
3127.611,0.40319425
3129.02,0.40372771
3130.431,0.40412955
3131.844,0.40436805
3133.257,0.40459364
3134.672,0.40496185
3136.088,0.40549281
3137.505,0.40609281
3138.924,0.40663423
3140.344,0.40705567
3141.765,0.40742399
3143.187,0.40785556
3144.611,0.40839159
3146.036,0.40900743
3147.462,0.40967021
3148.89,0.41031354
3150.319,0.41086429
3151.749,0.41134186
3153.18,0.41182325
3154.613,0.41230266
3156.047,0.41273226
3157.482,0.41315875
3158.919,0.41364454
3160.357,0.41413174
3161.796,0.41456736
3163.236,0.41503859
3164.678,0.41560842
3166.121,0.4161793
3167.566,0.41668504
3169.011,0.41719123
3170.458,0.41768396
3171.907,0.41803316
3173.356,0.418289
3174.807,0.41870987
3176.26,0.41941873
3177.713,0.42030402
3179.168,0.42125049
3180.624,0.42214377
3182.082,0.42273204
3183.541,0.42285956
3185.001,0.42277065
3186.463,0.42285369
3187.926,0.42320474
3189.39,0.42371725
3190.856,0.42436231
3192.323,0.42508338
3193.791,0.42564544
3195.26,0.42588575
3196.731,0.42592138
3198.204,0.42594095
3199.677,0.42601758
3201.152,0.42622058
3202.629,0.42661553
3204.106,0.4270745
3205.585,0.42737069
3207.066,0.42752396
3208.548,0.42781183
3210.031,0.42841633
3211.515,0.42928396
3213.001,0.43029617
3214.488,0.43133195
3215.977,0.43217872
3217.467,0.43260852
3218.958,0.43259047
3220.451,0.43232437
3221.945,0.4320659
3223.441,0.43199456
3224.938,0.43216797
3226.436,0.43248275
3227.936,0.43272107
3229.437,0.43277522
3230.939,0.43279052
3232.443,0.43298916
3233.948,0.43337778
3235.455,0.43375963
3236.963,0.43399302
3238.472,0.43411515
3239.983,0.4342447
3241.495,0.43450024
3243.008,0.43496447
3244.523,0.43558788
3246.04,0.43617314
3247.558,0.4365922
3249.077,0.43693974
3250.598,0.43735901
3252.12,0.4378448
3253.643,0.43835691
3255.168,0.43892292
3256.694,0.43948669
3258.222,0.43982897
3259.751,0.43981382
3261.282,0.43956447
3262.814,0.43930745
3264.347,0.43920527
3265.882,0.439381
3267.418,0.43987435
3268.956,0.44051698
3270.495,0.44102816
3272.036,0.44127829
3273.578,0.44133416
3275.122,0.44132083
3276.667,0.44137665
3278.213,0.44164184
3279.761,0.44212906
3281.31,0.44268488
3282.861,0.44318467
3284.413,0.44365133
3285.967,0.44411067
3287.522,0.4444897
3289.079,0.44474195
3290.637,0.4449593
3292.196,0.44527748
3293.757,0.44573424
3295.32,0.4462315
3296.884,0.44658657
3298.449,0.44665893
3300.016,0.44650525
3301.585,0.44637042
3303.155,0.44646529
3304.726,0.44677497
3306.299,0.44711036
3307.873,0.44729748
3309.449,0.44732448
3311.026,0.44733593
3312.605,0.44748233
3314.185,0.44776677
3315.767,0.44807874
3317.351,0.44834939
3318.936,0.44860083
3320.522,0.44887483
3322.11,0.44921839
3323.699,0.44970513
3325.29,0.45035397
3326.882,0.45103755
3328.476,0.45154737
3330.072,0.45172247
3331.669,0.45151144
3333.267,0.45102399
3334.867,0.45054842
3336.469,0.45036484
3338.072,0.45048738
3339.676,0.45071082
3341.282,0.45090686
3342.89,0.45110068
3344.499,0.45129843
3346.11,0.45145641
3347.722,0.45160347
3349.336,0.45177822
3350.952,0.45186765
3352.569,0.45171212
3354.187,0.45133034
3355.807,0.45087711
3357.429,0.45047124
3359.052,0.45020174
3360.677,0.4501656
3362.303,0.45033831
3363.931,0.45053173
3365.56,0.45059512
3367.191,0.45053786
3368.824,0.45039384
3370.458,0.45014165
3372.093,0.44980384
3373.731,0.44946314
3375.37,0.44916168
3377.01,0.44891602
3378.652,0.44879596
3380.296,0.44885015
3381.941,0.44902154
3383.588,0.44923553
3385.236,0.44948418
3386.886,0.44975798
3388.538,0.44999826
3390.191,0.45017786
3391.846,0.450332
3393.502,0.45048864
3395.16,0.45064107
3396.82,0.45075572
3398.481,0.45076779
3400.144,0.45065607
3401.809,0.45052357
3403.475,0.45047837
3405.143,0.45043031
3406.812,0.45017862
3408.483,0.44966528
3410.156,0.44900895
3411.83,0.44835569
3413.506,0.44785925
3415.183,0.44767373
3416.862,0.4478229
3418.543,0.44820103
3420.226,0.44877433
3421.91,0.44956898
3423.596,0.45043734
3425.283,0.45112474
3426.972,0.45161826
3428.663,0.45214582
3430.355,0.45282919
3432.049,0.45360745
3433.745,0.45446226
3435.442,0.45540899
3437.141,0.45634835
3438.842,0.45718809
3440.545,0.45799189
3442.249,0.45876033
3443.954,0.45925495
3445.662,0.45929442
3447.371,0.45905731
3449.082,0.45886032
3450.794,0.45881444
3452.509,0.45888192
3454.224,0.45906314
3455.942,0.45932968
3457.661,0.45957284
3459.382,0.4597759
3461.105,0.46004754
3462.829,0.46037766
3464.556,0.46056396
3466.283,0.46050127
3468.013,0.46031561
3469.744,0.46012374
3471.477,0.45989101
3473.212,0.45962365
3474.948,0.4594539
3476.686,0.45942866
3478.426,0.45944329
3480.168,0.45946162
3481.911,0.45958007
3483.656,0.45983072
3485.403,0.46016077
3487.152,0.46060937
3488.902,0.461222
3490.654,0.46179074
3492.408,0.46199045
3494.164,0.46178697
3495.921,0.46144259
3497.68,0.46114749
3499.441,0.4609229
3501.204,0.46081668
3502.968,0.46091563
3504.734,0.46119128
3506.502,0.46155722
3508.272,0.46201515
3510.043,0.46257707
3511.817,0.46317204
3513.592,0.46377325
3515.368,0.46446307
3517.147,0.46525381
3518.927,0.46600921
3520.71,0.46662533
3522.494,0.46712269
3524.28,0.46752253
3526.067,0.46781643
3527.857,0.46810827
3529.648,0.46859206
3531.441,0.46932144
3533.236,0.47010169
3535.032,0.4706525
3536.831,0.47082343
3538.631,0.47066438
3540.433,0.47036542
3542.237,0.47012653
3544.043,0.47005338
3545.851,0.4701492
3547.66,0.47036854
3549.471,0.47064939
3551.284,0.47092851
3553.099,0.47116755
3554.916,0.471358
3556.735,0.47151609
3558.555,0.47167558
3560.378,0.47185448
3562.202,0.47201056
3564.028,0.47208587
3565.856,0.47210573
3567.686,0.47216985
3569.518,0.47230674
3571.351,0.4724289
3573.187,0.47245841
3575.024,0.47241899
3576.863,0.47238454
3578.704,0.47243391
3580.547,0.47264566
3582.392,0.47303326
3584.239,0.47344719
3586.088,0.47366859
3587.938,0.47363396
3589.791,0.47349483
3591.645,0.47343759
3593.501,0.47352755
3595.359,0.47371357
3597.22,0.47387301
3599.082,0.47386042
3600.946,0.47363699
3602.811,0.47334687
3604.679,0.4731699
3606.549,0.47313643
3608.421,0.47319501
3610.294,0.47337851
3612.17,0.47373698
3614.047,0.47416712
3615.926,0.47446552
3617.808,0.47452781
3619.691,0.47439068
3621.576,0.47415013
3623.463,0.47393072
3625.353,0.47383922
3627.244,0.47387586
3629.137,0.47396643
3631.032,0.47409337
3632.929,0.47427664
3634.828,0.47445591
3636.729,0.47453277
3638.632,0.47451672
3640.537,0.47450321
3642.444,0.47454137
3644.353,0.47463658
3646.263,0.47480692
3648.176,0.47503364
3650.091,0.47522189
3652.008,0.47528136
3653.927,0.47520004
3655.848,0.47503281
3657.771,0.47487167
3659.696,0.47479456
3661.623,0.47478825
3663.552,0.47477841
3665.483,0.47476149
3667.416,0.47480463
3669.351,0.47491876
3671.288,0.47503581
3673.227,0.47512174
3675.168,0.47519676
3677.111,0.47528118
3679.057,0.47538695
3681.004,0.47550951
3682.953,0.47557388
3684.905,0.47550051
3686.858,0.47534525
3688.814,0.47525592
3690.771,0.47527083
3692.731,0.47530045
3694.693,0.4752732
3696.656,0.47518583
3698.622,0.47505604
3700.59,0.47494041
3702.56,0.4749131
3704.532,0.4749602
3706.507,0.47497995
3708.483,0.47492321
3710.461,0.4748344
3712.442,0.47476777
3714.425,0.47476506
3716.409,0.47487606
3718.396,0.47508549
3720.385,0.47528911
3722.376,0.47540425
3724.37,0.47545754
3726.365,0.47551703
3728.362,0.47562363
3730.362,0.47578429
3732.364,0.47596046
3734.368,0.47607945
3736.374,0.47612293
3738.382,0.47614976
3740.392,0.47621632
3742.405,0.47632903
3744.419,0.47648155
3746.436,0.47664617
3748.455,0.47676932
3750.476,0.47683845
3752.499,0.47689279
3754.525,0.47692548
3756.553,0.47690111
3758.582,0.47685899
3760.614,0.47687977
3762.649,0.47695485
3764.685,0.47702096
3766.724,0.47705704
3768.764,0.4770538
3770.807,0.47698605
3772.853,0.47690909
3774.9,0.47692735
3776.95,0.47702865
3779.001,0.47711349
3781.056,0.47717758
3783.112,0.47726905
3785.17,0.47734536
3787.231,0.47736773
3789.294,0.47742521
3791.359,0.47757134
3793.427,0.47770479
3795.496,0.47775037
3797.568,0.47777065
3799.643,0.47780273
3801.719,0.4778083
3803.798,0.47782443
3805.879,0.47792504
3807.962,0.4780416
3810.048,0.47806216
3812.135,0.47804119
3814.225,0.47809456
3816.318,0.47819838
3818.412,0.47828395
3820.509,0.47838094
3822.609,0.47851302
3824.71,0.47862041
3826.814,0.478701
3828.92,0.47885173
3831.029,0.4790952
3833.139,0.47933384
3835.252,0.47950811
3837.368,0.4796507
3839.486,0.47978778
3841.606,0.47991156
3843.728,0.48002875
3845.853,0.48015155
3847.98,0.4802673
3850.109,0.48035997
3852.241,0.4804416
3854.375,0.48054161
3856.512,0.48068649
3858.65,0.48086482
3860.792,0.48102585
3862.935,0.48113112
3865.081,0.48119218
3867.229,0.48123132
3869.38,0.48126753
3871.533,0.48133836
3873.689,0.48144962
3875.846,0.48151837
3878.007,0.48148928
3880.169,0.48146308
3882.334,0.48156273
3884.502,0.48173968
3886.672,0.48189228
3888.844,0.48206586
3891.019,0.48235294
3893.196,0.48269975
3895.375,0.48298632
3897.557,0.48317945
3899.742,0.48327511
3901.929,0.4832365
3904.118,0.48310743
3906.31,0.48303454
3908.504,0.48308134
3910.7,0.48317179
3912.9,0.48325819
3915.101,0.48336179
3917.305,0.48343658
3919.512,0.48339133
3921.721,0.48326964
3923.932,0.48322655
3926.146,0.48331831
3928.363,0.48347106
3930.581,0.4836397
3932.803,0.48384061
3935.027,0.48406087
3937.253,0.48428346
3939.482,0.48456426
3941.714,0.48493076
3943.948,0.48527529
3946.184,0.48547643
3948.423,0.48555948
3950.665,0.48562081
3952.909,0.485698
3955.156,0.48582115
3957.405,0.48607314
3959.657,0.48647907
3961.911,0.48694306
3964.168,0.48736931
3966.427,0.48773834
3968.689,0.48803064
3970.954,0.48821915
3973.221,0.48835777
3975.491,0.48854552
3977.763,0.48880877
3980.038,0.48912389
3982.315,0.4894867
3984.595,0.48986773
3986.878,0.49019308
3989.163,0.4904484
3991.451,0.49067454
3993.742,0.49086124
3996.035,0.49099903
3998.33,0.49119991
4000.629,0.49156384
4002.93,0.49198605
4005.233,0.49230646
4007.54,0.4925382
4009.849,0.49276756
4012.16,0.49299127
4014.475,0.49322022
4016.791,0.49352504
4019.111,0.49385779
4021.433,0.49408168
4023.758,0.49423658
4026.086,0.49450569
4028.416,0.49490736
4030.749,0.49530901
4033.085,0.49568166
4035.423,0.49605436
4037.764,0.49632586
4040.108,0.49643594
4042.454,0.49657067
4044.804,0.49692069
4047.155,0.49739721
4049.51,0.49781967
4051.867,0.49817985
4054.228,0.49854226
4056.59,0.49888153
4058.956,0.49919116
4061.324,0.49955501
4063.695,0.49998991
4066.069,0.50038224
4068.446,0.50066805
4070.825,0.50092316
4073.207,0.501217
4075.592,0.50151552
4077.98,0.50180051
4080.371,0.50214811
4082.764,0.50260264
4085.16,0.50306433
4087.559,0.50341975
4089.961,0.50371499
4092.365,0.50406384
4094.773,0.50446291
4097.183,0.50485857
4099.596,0.50530458
4102.012,0.50584423
4104.43,0.5063596
4106.852,0.50676181
4109.276,0.50716423
4111.703,0.50764741
4114.133,0.50808598
4116.566,0.50842324
4119.002,0.50883357
4121.441,0.50939548
4123.882,0.50993635
4126.327,0.5103737
4128.774,0.51083841
4131.224,0.51135045
4133.677,0.51177639
4136.133,0.51216446
4138.592,0.51270359
4141.054,0.51336271
4143.519,0.51396536
4145.987,0.51453397
4148.457,0.51519074
4150.931,0.51588888
4153.407,0.51654017
4155.887,0.51719858
4158.369,0.51788405
4160.854,0.51847968
4163.343,0.5189507
4165.834,0.51939196
4168.328,0.51982921
4170.826,0.52022854
4173.326,0.52066289
4175.829,0.52121276
4178.335,0.52183056
4180.844,0.52247877
4183.356,0.52320884
4185.872,0.52400281
4188.39,0.52479537
4190.911,0.52567797
4193.435,0.52682771
4195.963,0.52832619
4198.493,0.53028757
4201.026,0.53295645
4203.563,0.53642085
4206.102,0.5404759
4208.645,0.54498432
4211.19,0.54998965
4213.739,0.5552894
4216.291,0.56040862
4218.846,0.56519006
4221.404,0.56980727
4223.965,0.57415268
4226.529,0.57797055
4229.096,0.58144962
4231.666,0.58472989
4234.24,0.58722976
4236.816,0.58844071
4239.396,0.58883209
4241.979,0.58890473
4244.565,0.58813344
4247.154,0.58561769
4249.746,0.58123277
4252.341,0.57585587
4254.94,0.57111343
4257.542,0.56881056
4260.146,0.56999484
4262.754,0.57424627
4265.366,0.57979558
4267.98,0.58461542
4270.598,0.58767173
4273.219,0.58911039
4275.843,0.58962072
4278.47,0.58993449
4281.1,0.59049046
4283.734,0.59128714
4286.371,0.59211336
4289.011,0.59280771
4291.655,0.59319759
4294.301,0.59312479
4296.951,0.59271371
4299.604,0.59238787
4302.261,0.59241695
4304.92,0.59258111
4307.583,0.5923826
4310.25,0.59154619
4312.919,0.59022992
4315.592,0.58881781
4318.268,0.5876213
4320.948,0.58677062
4323.631,0.58624062
4326.317,0.58588247
4329.006,0.58550564
4331.699,0.58501227
4334.395,0.58442823
4337.095,0.58381274
4339.797,0.58324064
4342.504,0.58284929
4345.213,0.58276836
4347.926,0.58299701
4350.642,0.58340862
4353.362,0.58385707
4356.085,0.58425092
4358.811,0.58459407
4361.541,0.58497385
4364.275,0.58547319
4367.011,0.58610644
4369.751,0.58685824
4372.495,0.58767592
4375.242,0.58845487
4377.992,0.58918982
4380.746,0.59006804
4383.504,0.59121488
4386.264,0.592482
4389.029,0.59371097
4391.796,0.59498147
4394.567,0.59632251
4397.342,0.59751856
4400.12,0.59851447
4402.902,0.59958702
4405.687,0.60083271
4408.476,0.60199099
4411.268,0.60302686
4414.064,0.60424861
4416.863,0.60567288
4419.666,0.60697645
4422.472,0.60814295
4425.282,0.60939272
4428.096,0.61054137
4430.913,0.61128049
4433.734,0.6119172
4436.558,0.61295262
4439.386,0.61421618
4442.217,0.6152393
4445.052,0.61608077
4447.891,0.61697553
4450.733,0.61775109
4453.579,0.61831174
4456.428,0.61906596
4459.281,0.62020144
4462.138,0.62124236
4464.998,0.62188231
4467.863,0.62251807
4470.73,0.62347782
4473.602,0.62450392
4476.477,0.62534872
4479.355,0.62616908
4482.238,0.62703137
4485.124,0.62772407
4488.014,0.62822963
4490.908,0.62882652
4493.805,0.62960565
4496.706,0.63037606
4499.611,0.63109513
4502.519,0.63195108
4505.431,0.63296503
4508.347,0.63386692
4511.267,0.63449468
4514.191,0.63501827
4517.118,0.63563119
4520.049,0.63625531
4522.984,0.63679174
4525.923,0.63742306
4528.865,0.63829849
4531.812,0.63914016
4534.762,0.63962019
4537.716,0.6399518
4540.674,0.6405489
4543.635,0.6413622
4546.601,0.64211399
4549.57,0.64290816
4552.543,0.64392781
4555.521,0.64492119
4558.502,0.6456464
4561.487,0.64638253
4564.475,0.64729197
4567.468,0.64787953
4570.465,0.64785556
4573.465,0.64790965
4576.47,0.64867473
4579.478,0.64974944
4582.491,0.65063338
4585.507,0.65156471
4588.527,0.65267772
4591.551,0.65348379
4594.58,0.65390385
4597.612,0.65464841
4600.648,0.65594678
4603.688,0.65709359
4606.732,0.65772129
4609.781,0.65829438
4612.833,0.65895992
4615.889,0.65929186
4618.949,0.65941747
4622.014,0.66002794
4625.082,0.66099136
4628.155,0.66148346
4631.231,0.66155311
4634.312,0.66204912
4637.397,0.66291725
4640.485,0.66337571
4643.578,0.66355341
4646.675,0.66415689
4649.777,0.66498372
4652.882,0.66530765
4655.991,0.66540396
4659.105,0.66606126
4662.223,0.66700573
4665.345,0.6675427
4668.471,0.66806318
4671.601,0.66920661
4674.735,0.67050127
4677.874,0.67130353
4681.017,0.67195579
4684.164,0.67265633
4687.315,0.67269391
4690.471,0.6720262
4693.63,0.67195227
4696.794,0.67311546
4699.962,0.67457615
4703.135,0.67562908
4706.312,0.67671895
4709.493,0.67796449
4712.678,0.67870071
4715.868,0.67893879
4719.062,0.67948109
4722.26,0.68042792
4725.463,0.68120557
4728.669,0.681879
4731.881,0.68288705
4735.096,0.68393643
4738.316,0.6845121
4741.541,0.68492061
4744.769,0.68569095
4748.002,0.68668492
4751.24,0.68760757
4754.482,0.68861905
4757.728,0.68980061
4760.979,0.69084205
4764.234,0.69165607
4767.494,0.69256861
4770.758,0.69367997
4774.026,0.69474397
4777.299,0.69566427
4780.577,0.69656735
4783.859,0.69747578
4787.145,0.69832724
4790.436,0.69911243
4793.732,0.69980954
4797.032,0.70039027
4800.336,0.7009393
4803.645,0.70155825
4806.959,0.70224735
4810.277,0.70309124
4813.6,0.70425205
4816.927,0.70553503
4820.259,0.70639737
4823.596,0.70662975
4826.937,0.70658985
4830.283,0.7066578
4833.633,0.70697509
4836.988,0.70763255
4840.348,0.7085461
4843.712,0.70932549
4847.081,0.70983491
4850.455,0.71052326
4853.833,0.7116894
4857.216,0.71290003
4860.604,0.71366773
4863.996,0.71418356
4867.393,0.71478566
4870.795,0.7152706
4874.202,0.71535281
4877.613,0.71533653
4881.03,0.71568749
4884.451,0.71642586
4887.876,0.71742581
4891.307,0.71873584
4894.742,0.72017311
4898.182,0.72121083
4901.627,0.72173519
4905.077,0.72232608
4908.532,0.72322794
4911.991,0.72390154
4915.456,0.72412234
4918.925,0.72451131
4922.399,0.72544709
4925.878,0.72654379
4929.362,0.72755421
4932.851,0.72864085
4936.345,0.729575
4939.844,0.7299168
4943.347,0.73009522
4946.856,0.73099611
4950.37,0.73251863
4953.888,0.73376188
4957.412,0.73443576
4960.941,0.73491383
4964.474,0.73530176
4968.013,0.73557039
4971.556,0.73611348
4975.105,0.737142
4978.659,0.73801332
4982.218,0.73817514
4985.782,0.73818047
4989.351,0.73873385
4992.925,0.73959404
4996.504,0.74031488
5000.088,0.74109633
5003.678,0.74213744
5007.272,0.74318387
5010.872,0.74424446
5014.477,0.7456904
5018.087,0.74725293
5021.703,0.74806837
5025.323,0.74799832
5028.949,0.74781138
5032.58,0.74794145
5036.216,0.74816178
5039.857,0.74840886
5043.504,0.74890369
5047.156,0.74953175
5050.813,0.74998325
5054.475,0.75036171
5058.143,0.75092206
5061.816,0.75149164
5065.495,0.75183997
5069.179,0.75228984
5072.868,0.75329995
5076.562,0.75471464
5080.262,0.75595586
5083.967,0.75670861
5087.678,0.75701794
5091.394,0.75702571
5095.115,0.75699022
5098.842,0.75727618
5102.574,0.75798482
5106.312,0.75881044
5110.055,0.75944978
5113.804,0.75993293
5117.558,0.76041087
5121.318,0.76090072
5125.083,0.76141619
5128.854,0.7621511
5132.63,0.76336816
5136.412,0.7651617
5140.199,0.76732038
5143.992,0.76930432
5147.791,0.77045635
5151.595,0.77048188
5155.405,0.76977828
5159.22,0.76916781
5163.041,0.76925899
5166.868,0.77005282
5170.7,0.77111636
5174.538,0.77206461
5178.382,0.77286103
5182.231,0.77373311
5186.086,0.7749637
5189.947,0.77675156
5193.814,0.77903491
5197.686,0.78141566
5201.564,0.78351089
5205.448,0.7853228
5209.338,0.78689006
5213.233,0.78775674
5217.134,0.7874802
5221.041,0.78661566
5224.954,0.78639835
5228.873,0.7874202
5232.798,0.7891855
5236.728,0.79087582
5240.665,0.79204796
5244.607,0.79268755
5248.555,0.79308647
5252.51,0.79366984
5256.47,0.79460108
5260.436,0.79570718
5264.408,0.79692505
5268.386,0.79840259
5272.37,0.8000412
5276.36,0.80154758
5280.356,0.80303103
5284.358,0.80484923
5288.367,0.80674916
5292.381,0.80791768
5296.401,0.80806862
5300.428,0.8077939
5304.46,0.80772894
5308.499,0.80804753
5312.544,0.80872343
5316.595,0.80967231
5320.652,0.81062228
5324.715,0.81133053
5328.785,0.81199077
5332.86,0.81318856
5336.942,0.81549725
5341.031,0.8190542
5345.125,0.8231299
5349.226,0.82608701
5353.333,0.82649566
5357.446,0.82463518
5361.566,0.82229533
5365.692,0.82101286
5369.824,0.82102903
5373.962,0.82171211
5378.107,0.82244777
5382.259,0.82302228
5386.417,0.82351935
5390.581,0.82411448
5394.751,0.82495265
5398.928,0.82612733
5403.112,0.82785773
5407.302,0.83058472
5411.498,0.83454648
5415.701,0.83900799
5419.911,0.84220316
5424.127,0.84270895
5428.349,0.84097164
5432.579,0.83883715
5436.814,0.83781586
5441.057,0.83831306
5445.305,0.8400874
5449.561,0.84293095
5453.823,0.84690692
5458.092,0.8519863
5462.368,0.85743116
5466.65,0.86187354
5470.939,0.8645855
5475.234,0.86628733
5479.537,0.86791895
5483.846,0.86927359
5488.162,0.86980985
5492.484,0.87010939
5496.814,0.87148733
5501.15,0.87493651
5505.493,0.88107863
5509.843,0.89018995
5514.2,0.90164424
5518.564,0.91383525
5522.934,0.92505238
5527.312,0.93472375
5531.696,0.94420214
5536.087,0.95566849
5540.486,0.96753974
5544.891,0.96874105
5549.303,0.94016493
5553.723,0.86826264
5558.149,0.7832457
5562.582,0.68448486
5567.023,0.61505835
5571.47,0.58180033
5575.925,0.57469854
5580.387,0.59813155
5584.856,0.63308848
5589.332,0.66241024
5593.815,0.68387762
5598.305,0.6994058
5602.803,0.71061995
5607.307,0.71975713
5611.819,0.72948602
5616.339,0.7389808
5620.865,0.74615978
5625.399,0.75197186
5629.94,0.75816006
5634.489,0.76380555
5639.044,0.76772941
5643.607,0.77098609
5648.178,0.77432647
5652.756,0.77648524
5657.341,0.77737906
5661.934,0.77916456
5666.534,0.78250325
5671.142,0.78599826
5675.757,0.78901765
5680.379,0.79202369
5685.01,0.79434939
5689.647,0.79522818
5694.293,0.79605354
5698.945,0.79862382
5703.606,0.80244412
5708.274,0.80615578
5712.949,0.80931059
5717.633,0.81160185
5722.324,0.81259942
5727.022,0.81303082
5731.729,0.81425916
5736.443,0.81622442
5741.165,0.81795164
5745.894,0.81952776
5750.631,0.82208251
5755.377,0.82593429
5760.13,0.83033519
5764.89,0.83384272
5769.659,0.83512674
5774.436,0.83413591
5779.22,0.8321662
5784.012,0.83044482
5788.813,0.82954205
5793.621,0.8297532
5798.437,0.83151063
5803.262,0.83486053
5808.094,0.83945573
5812.934,0.84487781
5817.782,0.85002122
5822.639,0.85282937
5827.503,0.85249532
5832.376,0.85045764
5837.257,0.84856996
5842.146,0.84789578
5847.043,0.84920584
5851.948,0.85242269
5856.862,0.85612948
5861.783,0.85896218
5866.714,0.8616339
5871.652,0.86510964
5876.598,0.86860719
5881.553,0.8705951
5886.517,0.87098421
5891.488,0.86986152
5896.468,0.86711302
5901.457,0.86393797
5906.454,0.86240359
5911.459,0.86286471
5916.473,0.86450042
5921.495,0.86737549
5926.526,0.87186347
5931.565,0.8760901
5936.613,0.87704253
5941.67,0.8748179
5946.735,0.87206056
5951.809,0.87039048
5956.891,0.87029479
5961.982,0.87179446
5967.082,0.8738185
5972.19,0.87500037
5977.307,0.87546206
5982.433,0.8760826
5987.568,0.87629147
5992.711,0.87518127
5997.864,0.87387419
6003.025,0.87384748
6008.195,0.87449929
6013.374,0.87428265
6018.562,0.87337248
6023.759,0.87330765
6028.964,0.87536285
6034.179,0.87988407
6039.403,0.88571798
6044.636,0.88961482
6049.878,0.88947482
6055.129,0.88765782
6060.389,0.88717958
6065.658,0.88765452
6070.936,0.88720842
6076.224,0.88526242
6081.52,0.88273202
6086.826,0.881024
6092.141,0.88168539
6097.466,0.88518874
6102.8,0.88959322
6108.143,0.89192455
6113.495,0.89137262
6118.857,0.88937877
6124.228,0.88731491
6129.609,0.88626999
6134.999,0.88721614
6140.398,0.88956854
6145.807,0.89151928
6151.226,0.89238527
6156.654,0.89289995
6162.091,0.8932719
6167.539,0.89350667
6172.996,0.89445784
6178.462,0.89628363
6183.938,0.89726702
6189.424,0.89653664
6194.92,0.89567795
6200.425,0.8959203
6205.94,0.89653762
6211.465,0.8969435
6217.0,0.89763278
6222.544,0.89864518
6228.099,0.89932983
6233.663,0.89975772
6239.237,0.90039679
6244.822,0.90097891
6250.416,0.90125824
6256.02,0.9018896
6261.635,0.90320536
6267.259,0.90451291
6272.893,0.90530204
6278.538,0.90580627
6284.193,0.90604477
6289.858,0.90590973
6295.533,0.90592619
6301.218,0.90665678
6306.914,0.90773266
6312.619,0.90869359
6318.336,0.90987124
6324.062,0.91170975
6329.799,0.91390003
6335.546,0.91573834
6341.304,0.91665705
6347.072,0.91679586
6352.851,0.91714458
6358.64,0.91855801
6364.44,0.92035617
6370.25,0.92083722
6376.071,0.91960058
6381.903,0.91814742
6387.745,0.91818935
6393.598,0.92056794
6399.461,0.92518633
6405.335,0.93019567
6411.221,0.93231999
6417.116,0.93052498
6423.023,0.92723483
6428.941,0.92462796
6434.869,0.92310256
6440.809,0.92262818
6446.759,0.92311645
6452.72,0.92403426
6458.693,0.92518494
6464.676,0.92728782
6470.671,0.93061495
6476.676,0.93392134
6482.693,0.93562679
6488.721,0.93532709
6494.76,0.93361296
6500.81,0.93161283
6506.872,0.93068906
6512.945,0.9311599
6519.029,0.93182016
6525.124,0.9316895
6531.231,0.93147873
6537.35,0.93212758
6543.48,0.93344504
6549.621,0.93502394
6555.774,0.93694231
6561.938,0.93884142
6568.114,0.93991115
6574.302,0.94023169
6580.501,0.94037089
6586.712,0.94012242
6592.934,0.93920371
6599.169,0.93847789
6605.415,0.938994
6611.673,0.94083273
6617.943,0.94346448
6624.224,0.94608295
6630.518,0.94706869
6636.823,0.94528079
6643.141,0.94225715
6649.47,0.94058731
6655.812,0.94095897
6662.166,0.94233288
6668.532,0.94350792
6674.91,0.94387766
6681.3,0.94351511
6687.702,0.94323469
6694.117,0.94400376
6700.544,0.94574825
6706.983,0.94715923
6713.435,0.94715467
6719.899,0.94607864
6726.375,0.94494701
6732.864,0.94432309
6739.365,0.94432843
6745.879,0.94496605
6752.406,0.9461244
6758.945,0.94757843
6765.497,0.94918517
6772.062,0.95075165
6778.639,0.95169724
6785.229,0.95135155
6791.832,0.94994994
6798.448,0.94868199
6805.076,0.94847861
6811.718,0.94920757
6818.372,0.95012981
6825.039,0.95084183
6831.72,0.95162368
6838.413,0.95292752
6845.12,0.95480784
6851.84,0.95661301
6858.573,0.95716932
6865.319,0.95597634
6872.078,0.95404485
6878.851,0.95276828
6885.637,0.95260952
6892.437,0.95313744
6899.25,0.95374834
6906.076,0.95408819
6912.916,0.95405194
6919.769,0.95384113
6926.636,0.95394894
6933.517,0.95475843
6940.411,0.95610925
6947.319,0.95738021
6954.241,0.95799732
6961.176,0.95795292
6968.125,0.9577428
6975.089,0.95778412
6982.066,0.95807547
6989.057,0.95842846
6996.062,0.95873299
7003.081,0.95898528
7010.114,0.95932063
7017.161,0.96005354
7024.223,0.96134572
7031.298,0.96280496
7038.388,0.96376089
7045.492,0.96395975
7052.611,0.96362578
7059.743,0.96306345
7066.891,0.96262185
7074.052,0.96262703
7081.229,0.96300757
7088.419,0.9634183
7095.625,0.9638419
7102.845,0.96450704
7110.079,0.96528811
7117.329,0.9659117
7124.593,0.96653158
7131.872,0.96739549
7139.166,0.96829171
7146.475,0.96888846
7153.799,0.96916581
7161.137,0.96913496
7168.491,0.96879771
7175.86,0.96852706
7183.244,0.9687657
7190.643,0.96936531
7198.058,0.96986031
7205.487,0.97014314
7212.933,0.9703282
7220.393,0.97041883
7227.869,0.97057291
7235.36,0.9710822
7242.867,0.97185133
7250.39,0.97251775
7257.928,0.97305774
7265.481,0.97358713
7273.051,0.97389007
7280.636,0.97387508
7288.237,0.97393788
7295.854,0.97428895
7303.487,0.97467173
7311.135,0.97508093
7318.8,0.97582407
7326.481,0.97668843
7334.178,0.97707836
7341.891,0.97702145
7349.62,0.97699361
7357.366,0.97707028
7365.128,0.97714547
7372.906,0.97744547
7380.701,0.97803888
7388.512,0.97855697
7396.34,0.9788901
7404.184,0.97937235
7412.045,0.97998164
7419.922,0.98033443
7427.817,0.98050106
7435.728,0.98091042
7443.656,0.98156864
7451.601,0.98217723
7459.562,0.98267002
7467.541,0.98303595
7475.537,0.98310251
7483.55,0.98295087
7491.58,0.98295762
7499.628,0.98321832
7507.692,0.98350371
7515.774,0.98374471
7523.874,0.98403395
7531.99,0.98432579
7540.125,0.98459023
7548.277,0.98494879
7556.446,0.98539345
7564.633,0.98575206
7572.838,0.98601411
7581.061,0.98626627
7589.302,0.98643396
7597.56,0.98647819
7605.837,0.9865692
7614.131,0.98674121
7622.444,0.98678977
7630.774,0.9866996
7639.123,0.98670039
7647.491,0.98683711
7655.876,0.98700323
7664.28,0.98727506
7672.702,0.98771726
7681.143,0.98811596
7689.602,0.98832899
7698.08,0.98853564
7706.577,0.98883243
7715.093,0.98905382
7723.627,0.98918582
7732.18,0.98943952
7740.752,0.98982682
7749.343,0.99016594
7757.953,0.99043921
7766.583,0.99074395
7775.231,0.99102487
7783.899,0.99123508
7792.586,0.99150181
7801.292,0.99189458
7810.018,0.99230483
7818.764,0.99268485
7827.529,0.99311533
7836.313,0.99359556
7845.117,0.99404073
7853.942,0.994455
7862.786,0.99488645
7871.649,0.99533817
7880.533,0.99580999
7889.437,0.99629886
7898.361,0.99672026
7907.305,0.99701898
7916.27,0.99728659
7925.254,0.99761694
7934.26,0.99797176
7943.285,0.99833164
7952.331,0.99875921
7961.398,0.99924881
7970.485,0.99970917
7979.594,0.0100013659
7988.723,0.0100057426
7997.872,0.01000987
8007.043,0.0100134547
8016.235,0.010017269
8025.448,0.0100215588
8034.682,0.0100253567
8043.937,0.0100284146
8053.214,0.0100318738
8062.512,0.0100359665
8071.832,0.0100393043
8081.173,0.0100412768
8090.535,0.0100429795
8099.92,0.0100455364
8109.326,0.0100490371
8118.754,0.0100531611
8128.204,0.0100574394
8137.676,0.0100609473
8147.169,0.0100631178
8156.686,0.0100646317
8166.224,0.0100667048
8175.785,0.0100698251
8185.368,0.0100736329
8194.973,0.0100776853
8204.601,0.010081685
8214.252,0.0100853503
8223.925,0.0100885806
8233.621,0.0100915646
8243.34,0.0100944879
8253.082,0.0100974882
8262.847,0.0101008022
8272.635,0.0101044966
8282.446,0.0101082377
8292.281,0.0101117803
8302.139,0.0101154885
8312.02,0.0101195154
8321.925,0.0101233686
8331.853,0.0101267209
8341.805,0.0101299022
8351.781,0.0101329436
8361.781,0.0101356752
8371.804,0.0101387294
8381.852,0.0101426627
8391.924,0.0101463392
8402.02,0.01014875
8412.14,0.01015103
8422.285,0.0101543341
8432.454,0.0101575404
8442.648,0.0101599064
8452.866,0.0101629609
8463.109,0.0101672487
8473.377,0.0101708263
8483.67,0.0101732783
8493.988,0.0101763146
8504.331,0.0101795595
8514.699,0.0101810242
8525.092,0.0101819693
8535.511,0.0101850366
8545.955,0.0101889815
8556.425,0.0101912404
8566.921,0.0101931666
8577.442,0.0101966815
8587.989,0.0101999004
8598.562,0.0102011979
8609.161,0.0102026908
8619.786,0.0102054968
8630.437,0.0102075385
8641.115,0.0102086166
8651.819,0.0102111792
8662.55,0.0102148731
8673.307,0.0102172154
8684.091,0.010218906
8694.902,0.0102221361
8705.739,0.010225848
8716.604,0.0102281869
8727.496,0.0102304446
8738.415,0.0102339763
8749.361,0.0102374891
8760.335,0.0102402611
8771.336,0.0102434687
8782.365,0.0102470844
8793.422,0.010250051
8804.507,0.0102529702
8815.619,0.0102567136
8826.76,0.0102604677
8837.928,0.0102638632
8849.125,0.010267654
8860.351,0.0102710144
8871.604,0.0102725284
8882.887,0.0102736681
8894.198,0.0102766092
8905.538,0.0102804546
8916.907,0.0102838036
8928.305,0.010287392
8939.732,0.010290892
8951.188,0.0102922039
8962.673,0.0102922154
8974.189,0.0102937982
8985.733,0.0102961722
8997.308,0.0102965473
9008.912,0.0102961232
9020.546,0.0102971523
9032.21,0.0102977059
9043.905,0.0102956544
9055.629,0.0102934232
9067.384,0.0102929932
9079.17,0.0102924648
9090.986,0.0102911857
9102.833,0.0102915511
9114.711,0.010292873
9126.62,0.0102914758
9138.56,0.0102874549
9150.531,0.0102842085
9162.534,0.0102819035
9174.568,0.0102786777
9186.634,0.0102757393
9198.731,0.0102750153
9210.86,0.0102747509
9223.022,0.0102728939
9235.215,0.0102707695
9247.441,0.0102697593
9259.699,0.0102685247
9271.99,0.0102664484
9284.313,0.0102652779
9296.669,0.0102657845
9309.058,0.0102663951
9321.48,0.0102660941
9333.935,0.0102653861
9346.423,0.0102645356
9358.945,0.0102633601
9371.5,0.0102626354
9384.089,0.0102632698
9396.712,0.0102647743
9409.369,0.0102658391
9422.06,0.0102661397
9434.785,0.0102663492
9447.545,0.010267005
9460.339,0.0102681122
9473.167,0.0102697194
9486.031,0.0102718219
9498.929,0.0102739999
9511.863,0.0102757063
9524.832,0.0102770965
9537.836,0.0102785634
9550.876,0.0102799621
9563.951,0.0102809413
9577.062,0.0102817395
9590.209,0.0102826055
9603.393,0.0102832982
9616.612,0.0102837313
9629.868,0.010284242
9643.16,0.010284859
9656.49,0.0102855546
9669.856,0.0102869644
9683.259,0.0102895496
9696.699,0.0102922321
9710.176,0.0102938169
9723.691,0.0102946152
9737.244,0.0102953969
9750.834,0.0102958944
9764.463,0.0102959729
9778.129,0.0102962771
9791.834,0.0102967734
9805.577,0.0102965947
9819.359,0.0102962077
9833.18,0.010296879
9847.039,0.0102983601
9860.938,0.0102992305
9874.875,0.0102995585
9888.853,0.010300309
9902.869,0.0103011058
9916.926,0.0103008049
9931.022,0.0102998032
9945.159,0.0102990528
9959.336,0.0102983209
9973.553,0.0102971932
9987.811,0.0102967293
10002.109,0.0102977864
10016.449,0.0102992521
10030.83,0.0102996356
10045.252,0.0102993472
10059.715,0.0102994139
10074.221,0.0102994816
10088.768,0.0102990712
10103.357,0.0102993643
10117.988,0.0103013651
10132.662,0.0103039197
10147.378,0.0103055755
10162.137,0.0103068761
10176.939,0.010308665
10191.784,0.0103101681
10206.672,0.0103108973
10221.604,0.0103121099
10236.58,0.0103141666
10251.6,0.0103154994
10266.663,0.0103158027
10281.771,0.0103169548
10296.924,0.0103192406
10312.121,0.0103208583
10327.363,0.0103216502
10342.65,0.0103233669
10357.982,0.01032583
10373.36,0.0103274126
10388.784,0.0103284079
10404.253,0.0103299936
10419.769,0.0103311521
10435.331,0.010330666
10450.939,0.0103296915
10466.594,0.0103293423
10482.296,0.0103286896
10498.045,0.0103274509
10513.842,0.0103269742
10529.686,0.0103275601
10545.577,0.0103283905
10561.517,0.0103298989
10577.505,0.0103325405
10593.542,0.0103348481
10609.627,0.010335767
10625.761,0.0103364359
10641.944,0.0103373127
10658.176,0.0103372859
10674.458,0.010336595
10690.79,0.0103366204
10707.172,0.0103368081
10723.604,0.0103363831
10740.086,0.0103367499
10756.619,0.0103385324
10773.203,0.0103395215
10789.839,0.0103390533
10806.525,0.0103392301
10823.264,0.0103400278
10840.054,0.0103392883
10856.896,0.0103382107
10873.791,0.0103394726
10890.738,0.0103415361
10907.738,0.0103415896
10924.791,0.0103414731
10941.898,0.0103434267
10959.058,0.0103452023
10976.272,0.0103450506
10993.541,0.0103455522
11010.863,0.0103477314
11028.24,0.010348926
11045.672,0.0103488051
11063.16,0.0103498056
11080.702,0.0103508291
11098.301,0.010349207
11115.955,0.0103469536
11133.665,0.0103473244
11151.432,0.0103484357
11169.256,0.0103473818
11187.137,0.0103456657
11205.075,0.0103450931
11223.07,0.0103439202
11241.124,0.0103413878
11259.235,0.0103395831
11277.405,0.0103390177
11295.634,0.0103379567
11313.921,0.0103365512
11332.268,0.0103360625
11350.675,0.0103355898
11369.141,0.0103337561
11387.667,0.0103315503
11406.254,0.0103302462
11424.901,0.0103294155
11443.61,0.0103283843
11462.38,0.0103272777
11481.211,0.0103258422
11500.105,0.0103237752
11519.06,0.0103215494
11538.079,0.0103196319
11557.16,0.0103178199
11576.304,0.010316206
11595.511,0.0103150546
11614.783,0.010314161
11634.118,0.0103132654
11653.518,0.0103126091
11672.983,0.0103121718
11692.513,0.010311656
11712.108,0.0103109767
11731.769,0.0103101123
11751.496,0.0103087758
11771.29,0.0103072611
11791.15,0.0103062359
11811.077,0.0103058272
11831.072,0.0103057829
11851.134,0.0103063903
11871.265,0.0103074474
11891.464,0.0103082324
11911.731,0.0103087512
11932.068,0.0103093454
11952.475,0.0103089252
11972.951,0.0103070306
11993.497,0.0103057566
12014.114,0.0103068991
12034.802,0.0103089463
12055.562,0.0103104427
12076.393,0.0103120468
12097.296,0.0103133571
12118.271,0.0103122918
12139.32,0.0103096052
12160.441,0.0103079276
12181.636,0.0103067494
12202.905,0.0103043489
12224.249,0.0103029773
12245.667,0.0103046997
12267.16,0.0103063518
12288.729,0.0103049406
12310.373,0.0103030941
12332.094,0.0103031015
12353.892,0.010302397
12375.767,0.0102996692
12397.719,0.0102977934
12419.75,0.0102974387
12441.859,0.0102960523
12464.046,0.0102944624
12486.313,0.0102959169
12508.659,0.0102988687
12531.086,0.0102990942
12553.593,0.0102968654
12576.18,0.0102951622
12598.85,0.0102938366
12621.601,0.010291754
12644.434,0.010290705
12667.35,0.0102920472
12690.349,0.0102931255
12713.432,0.0102921125
12736.599,0.0102913236
12759.85,0.0102926937
12783.187,0.0102943397
12806.608,0.0102949077
12830.116,0.0102959833
12853.71,0.0102982157
12877.391,0.010299466
12901.159,0.0102991744
12925.016,0.0102996792
12948.96,0.010301749
12972.993,0.0103032834
12997.116,0.0103039888
13021.329,0.0103058074
13045.631,0.0103084046
13070.025,0.0103091287
13094.51,0.0103082613
13119.087,0.0103081993
13143.756,0.0103087549
13168.518,0.0103085439
13193.373,0.0103091531
13218.322,0.0103115015
13243.366,0.0103125232
13268.505,0.0103106383
13293.74,0.0103095962
13319.07,0.0103112963
13344.497,0.0103125751
13370.021,0.0103123013
13395.644,0.0103132931
13421.364,0.0103146362
13447.183,0.0103126859
13473.102,0.0103089912
13499.121,0.010307426
13525.24,0.0103058616
13551.461,0.0103017389
13577.783,0.0102988944
13604.208,0.010300019
13630.736,0.0103005777
13657.367,0.0102987032
13684.103,0.0102985206
13710.943,0.0102994081
13737.889,0.0102950531
13764.941,0.0102870492
13792.099,0.0102828875
13819.365,0.0102824272
13846.739,0.0102806286
13874.221,0.010279305
13901.813,0.0102810071
13929.515,0.0102808597
13957.327,0.0102758092
13985.25,0.0102717013
14013.285,0.0102709761
14041.433,0.0102686398
14069.694,0.010264797
14098.068,0.010265198
14126.558,0.0102674028
14155.163,0.0102644813
14183.883,0.0102584463
14212.721,0.0102548462
14241.676,0.0102510815
14270.749,0.0102449341
14299.94,0.0102417857
14329.252,0.0102433213
14358.684,0.0102429392
14388.237,0.0102395059
14417.911,0.0102373517
14447.709,0.0102339786
14477.629,0.010224414
14507.674,0.0102143587
14537.844,0.0102097633
14568.139,0.0102060529
14598.561,0.0101999125
14629.109,0.0101974108
14659.786,0.0101979785
14690.592,0.0101936756
14721.528,0.0101865584
14752.594,0.0101856768
14783.791,0.010185284
14815.121,0.0101749077
14846.583,0.010156897
14878.179,0.0101362258
14909.91,0.0101088715
14941.777,0.0100851022
14973.78,0.010085835
15005.92,0.0101068971
15038.198,0.0101178083
15070.616,0.0101127816
15103.173,0.0101043895
15135.871,0.0100942154
15168.712,0.0100724707
15201.695,0.0100528622
15234.821,0.0100367903
15268.092,0.0100095054
15301.509,0.99661565
15335.072,0.99379326
15368.783,0.99151005
15402.642,0.98764422
15436.651,0.98139037
15470.81,0.97704103
15505.12,0.97213306
15539.583,0.96693036
15574.199,0.96223191
15608.97,0.9613741
15643.896,0.95385123
15678.979,0.94005516
15714.22,0.92198191
15749.619,0.91107558
15785.178,0.89962562
15820.897,0.88844599
15856.779,0.87910872
15892.824,0.87740884
15929.033,0.86737944
15965.407,0.84568251
