Database of Origin,University of Winnipeg Spectrophotometer Facility
Sample Description,See Master Clays in HOSERLab database
Date Added,2016-12-11 20:56:55.321498

Data ID,FTIR_CLAY_12        
Sample ID,NON101
Mineral Name,Nontronite
Grain Size,<45 m
Viewing Geometry,35/0
Resolution,11-72 nm
Material Class,Phyllosilicate

Wavelength
2001.142,0.39328592
2002.307,0.39379516
2003.474,0.39393525
2004.643,0.39451087
2005.812,0.39544251
2006.983,0.39648875
2008.155,0.39728013
2009.329,0.39783253
2010.504,0.39837047
2011.68,0.3992891
2012.858,0.40051779
2014.037,0.40128276
2015.217,0.40162143
2016.399,0.40169539
2017.582,0.40206465
2018.766,0.40285835
2019.952,0.40364637
2021.139,0.4042001
2022.328,0.40427587
2023.518,0.4042506
2024.709,0.4047678
2025.902,0.40564491
2027.096,0.40634275
2028.291,0.40702275
2029.488,0.40753085
2030.686,0.40791289
2031.886,0.40836047
2033.087,0.40854061
2034.289,0.40892105
2035.493,0.4096508
2036.698,0.41023462
2037.905,0.41079287
2039.113,0.41145875
2040.322,0.41223894
2041.533,0.41303925
2042.746,0.41349976
2043.959,0.41397071
2045.174,0.41442674
2046.391,0.4149329
2047.609,0.41587803
2048.828,0.41635489
2050.049,0.41631579
2051.271,0.41655736
2052.495,0.41692298
2053.72,0.41726334
2054.947,0.4174632
2056.175,0.41760681
2057.404,0.41829045
2058.635,0.41895332
2059.867,0.41901035
2061.101,0.41900436
2062.336,0.41900003
2063.573,0.41928532
2064.811,0.42019469
2066.051,0.42079339
2067.292,0.42102248
2068.534,0.42118155
2069.778,0.42118605
2071.024,0.42143715
2072.271,0.42157601
2073.519,0.42174896
2074.769,0.42218315
2076.02,0.42224213
2077.273,0.42228258
2078.528,0.4229373
2079.784,0.42346786
2081.041,0.42354936
2082.3,0.42377462
2083.56,0.42404788
2084.822,0.42458888
2086.085,0.42508618
2087.35,0.42525065
2088.617,0.42568799
2089.885,0.42613184
2091.154,0.4264723
2092.425,0.42676495
2093.697,0.42675888
2094.971,0.42686119
2096.247,0.4273999
2097.524,0.4278116
2098.803,0.42793255
2100.083,0.42837232
2101.364,0.42890156
2102.648,0.42894011
2103.932,0.4289508
2105.219,0.42956482
2106.506,0.43053288
2107.796,0.43148742
2109.087,0.43202781
2110.379,0.43212717
2111.673,0.4322655
2112.969,0.43221996
2114.266,0.43234365
2115.565,0.43288569
2116.865,0.43335637
2118.167,0.43375243
2119.471,0.43386431
2120.776,0.43382587
2122.082,0.43385895
2123.391,0.43378602
2124.7,0.43359931
2126.012,0.43342982
2127.325,0.43298337
2128.64,0.43234794
2129.956,0.43248535
2131.274,0.43326601
2132.593,0.43401203
2133.914,0.43440768
2135.237,0.4342146
2136.561,0.43412039
2137.887,0.43459417
2139.214,0.43490286
2140.544,0.43467041
2141.874,0.43451598
2143.207,0.43453465
2144.541,0.4343299
2145.876,0.43406529
2147.214,0.43390019
2148.553,0.43397149
2149.893,0.43413545
2151.235,0.43386486
2152.579,0.43327208
2153.925,0.43309585
2155.272,0.43314759
2156.621,0.43289497
2157.972,0.43269458
2159.324,0.43246741
2160.678,0.43202019
2162.033,0.43160129
2163.39,0.43114614
2164.749,0.43077086
2166.11,0.43062736
2167.472,0.43082749
2168.836,0.43123815
2170.202,0.4314772
2171.569,0.43151749
2172.938,0.4311099
2174.309,0.4304212
2175.682,0.43018829
2177.056,0.43032018
2178.432,0.43005642
2179.809,0.42952463
2181.189,0.42932069
2182.57,0.42909559
2183.952,0.4285352
2185.337,0.42803797
2186.723,0.42760617
2188.111,0.42702792
2189.501,0.4264529
2190.892,0.42595177
2192.285,0.42511718
2193.68,0.42382911
2195.077,0.42282703
2196.476,0.42220732
2197.876,0.42128548
2199.278,0.41980478
2200.682,0.4181511
2202.087,0.41654754
2203.494,0.415066
2204.903,0.41418113
2206.314,0.41388411
2207.727,0.41373755
2209.141,0.41385813
2210.557,0.414349
2211.975,0.41453349
2213.395,0.4144326
2214.817,0.4141803
2216.24,0.41364901
2217.665,0.41361418
2219.092,0.41354333
2220.521,0.41274225
2221.952,0.41231251
2223.384,0.41265439
2224.818,0.41332222
2226.254,0.41395646
2227.692,0.41433724
2229.132,0.41483361
2230.574,0.41567726
2232.017,0.41668075
2233.462,0.41737394
2234.91,0.41747097
2236.359,0.41755411
2237.809,0.41806709
2239.262,0.41873678
2240.717,0.41905044
2242.173,0.41926479
2243.631,0.41969732
2245.092,0.41988592
2246.554,0.41988502
2248.017,0.42004863
2249.483,0.4202901
2250.951,0.42034982
2252.421,0.41991114
2253.892,0.4189967
2255.365,0.41846169
2256.841,0.41805345
2258.318,0.41686811
2259.797,0.41534047
2261.278,0.41368305
2262.761,0.41197797
2264.246,0.4100211
2265.732,0.40707013
2267.221,0.40356433
2268.712,0.40035143
2270.204,0.39706397
2271.699,0.39337322
2273.195,0.38974121
2274.694,0.38606794
2276.194,0.38230244
2277.696,0.37864878
2279.201,0.3752236
2280.707,0.37228305
2282.215,0.36977329
2283.725,0.36799833
2285.237,0.36702103
2286.752,0.36670838
2288.268,0.36742985
2289.786,0.36896346
2291.306,0.37083196
2292.828,0.37306129
2294.352,0.37568069
2295.878,0.37830108
2297.406,0.38079806
2298.936,0.38346834
2300.468,0.38638304
2302.002,0.38932183
2303.539,0.39173299
2305.077,0.3937611
2306.617,0.39583053
2308.159,0.39755085
2309.703,0.39870607
2311.25,0.39945433
2312.798,0.40000364
2314.348,0.40065966
2315.901,0.401111
2317.455,0.40088272
2319.012,0.40055473
2320.571,0.40031486
2322.131,0.40002867
2323.694,0.40014608
2325.259,0.40012516
2326.826,0.39964046
2328.395,0.39922357
2329.966,0.39906312
2331.54,0.39887925
2333.115,0.39821217
2334.692,0.39763196
2336.272,0.39733161
2337.854,0.39659373
2339.437,0.3955457
2341.023,0.39459787
2342.611,0.39389408
2344.201,0.39340924
2345.794,0.39290625
2347.388,0.3920119
2348.985,0.39087051
2350.583,0.39011829
2352.184,0.38955175
2353.787,0.38911007
2355.393,0.38900417
2357.0,0.38854342
2358.609,0.3877846
2360.221,0.38707112
2361.835,0.38630593
2363.451,0.38600149
2365.069,0.38590121
2366.69,0.38519301
2368.312,0.38425474
2369.937,0.38347533
2371.564,0.38238831
2373.194,0.38108932
2374.825,0.38007416
2376.459,0.37907832
2378.095,0.37787575
2379.733,0.37638041
2381.373,0.37465262
2383.016,0.37321988
2384.661,0.37204896
2386.308,0.37070655
2387.957,0.36935876
2389.609,0.36844429
2391.263,0.36760857
2392.919,0.36658627
2394.577,0.36561598
2396.238,0.36471437
2397.901,0.36396376
2399.566,0.36335443
2401.233,0.36293585
2402.903,0.36273192
2404.575,0.36279239
2406.25,0.3632059
2407.926,0.36375037
2409.606,0.36404337
2411.287,0.36395584
2412.971,0.36386785
2414.657,0.36397114
2416.345,0.36408503
2418.036,0.36406474
2419.729,0.36380555
2421.424,0.36342181
2423.122,0.36331191
2424.822,0.36318609
2426.524,0.36278618
2428.229,0.36250836
2429.936,0.36212128
2431.646,0.36134849
2433.358,0.36068809
2435.072,0.36027241
2436.789,0.35973378
2438.508,0.35934245
2440.229,0.35925887
2441.953,0.35884958
2443.679,0.3581421
2445.408,0.35766945
2447.139,0.35723637
2448.873,0.35666494
2450.609,0.3560136
2452.347,0.35546069
2454.088,0.3549764
2455.831,0.35433211
2457.577,0.35366269
2459.325,0.35288594
2461.076,0.35191876
2462.829,0.35111167
2464.585,0.35061195
2466.343,0.34998396
2468.104,0.34911494
2469.867,0.34839519
2471.632,0.34779074
2473.4,0.34727071
2475.171,0.34670819
2476.944,0.34584724
2478.72,0.34489693
2480.498,0.34396409
2482.278,0.34301166
2484.062,0.34189504
2485.847,0.34060396
2487.636,0.33972531
2489.427,0.33924678
2491.22,0.33846096
2493.016,0.3373216
2494.814,0.33654844
2496.615,0.33624976
2498.419,0.33576517
2500.225,0.33519788
2502.034,0.33471773
2503.845,0.33418069
2505.659,0.33384133
2507.476,0.3337027
2509.295,0.33365956
2511.117,0.33373729
2512.942,0.33388768
2514.769,0.33393466
2516.598,0.33394157
2518.431,0.33416917
2520.266,0.33440059
2522.103,0.33459941
2523.944,0.33477965
2525.787,0.33468367
2527.632,0.334476
2529.48,0.33474068
2531.331,0.33551252
2533.185,0.33592832
2535.041,0.33593883
2536.9,0.33536339
2538.762,0.33425717
2540.627,0.33463659
2542.494,0.33613328
2544.364,0.33600183
2546.236,0.33542793
2548.112,0.33560273
2549.99,0.33602155
2551.87,0.33662555
2553.754,0.33586513
2555.64,0.33441057
2557.529,0.33461102
2559.421,0.33710554
2561.316,0.34059135
2563.213,0.34109803
2565.113,0.33819464
2567.016,0.3363403
2568.922,0.33667123
2570.831,0.33713634
2572.742,0.33768461
2574.656,0.33818415
2576.573,0.33725317
2578.493,0.33547579
2580.416,0.33493859
2582.342,0.33683176
2584.27,0.33780627
2586.201,0.33680569
2588.135,0.33557853
2590.072,0.33351316
2592.012,0.33445709
2593.955,0.34126186
2595.9,0.34070155
2597.849,0.33252006
2599.8,0.32942319
2601.755,0.33083757
2603.712,0.33405094
2605.672,0.33497199
2607.635,0.3320362
2609.601,0.32895794
2611.57,0.326672
2613.542,0.32604545
2615.517,0.32823069
2617.495,0.3299555
2619.475,0.32827666
2621.459,0.32399484
2623.446,0.32042853
2625.435,0.32055307
2627.428,0.32200888
2629.424,0.32269659
2631.423,0.32164756
2633.424,0.31783932
2635.429,0.31383368
2637.437,0.31082324
2639.447,0.3094361
2641.461,0.30878513
2643.478,0.30784939
2645.498,0.30664091
2647.521,0.30391874
2649.547,0.30107049
2651.576,0.30008951
2653.609,0.29952916
2655.644,0.29686121
2657.682,0.29379566
2659.724,0.29207653
2661.768,0.29003886
2663.816,0.29055184
2665.867,0.29336075
2667.921,0.29106554
2669.978,0.28717641
2672.038,0.2785548
2674.102,0.27137231
2676.168,0.2710469
2678.238,0.26574034
2680.311,0.2517914
2682.387,0.24154306
2684.467,0.2329969
2686.549,0.22012504
2688.635,0.20252829
2690.724,0.18619582
2692.816,0.17504122
2694.911,0.16132607
2697.01,0.14395019
2699.112,0.13521759
2701.217,0.13468684
2703.325,0.13600351
2705.437,0.13773144
2707.552,0.14219428
2709.67,0.14826257
2711.791,0.146215
2713.916,0.13680425
2716.044,0.12975948
2718.175,0.12922068
2720.31,0.13186821
2722.448,0.12680843
2724.589,0.11785641
2726.734,0.10639452
2728.882,0.09655596
2731.034,0.08973338
2733.188,0.08455514
2735.347,0.07910654
2737.508,0.07423531
2739.673,0.07291037
2741.841,0.06784415
2744.013,0.05988059
2746.188,0.05554034
2748.367,0.05306264
2750.549,0.05070773
2752.734,0.049151
2754.923,0.04888104
2757.115,0.04674568
2759.311,0.04416146
2761.51,0.04391244
2763.713,0.04450245
2765.919,0.04401323
2768.129,0.04313385
2770.342,0.04274253
2772.559,0.04214293
2774.779,0.04130464
2777.003,0.04073471
2779.23,0.04007916
2781.461,0.03926449
2783.696,0.03810322
2785.934,0.03714275
2788.175,0.03624767
2790.42,0.03486299
2792.669,0.03377789
2794.922,0.03295253
2797.178,0.03219887
2799.437,0.03164867
2801.7,0.03196583
2803.967,0.03247068
2806.238,0.03190004
2808.512,0.03185392
2810.789,0.03238098
2813.071,0.03341102
2815.356,0.03516712
2817.645,0.03687764
2819.937,0.03838227
2822.233,0.03975146
2824.533,0.04079728
2826.837,0.04169503
2829.144,0.04201957
2831.455,0.04183937
2833.77,0.04196333
2836.089,0.04172523
2838.411,0.04105275
2840.737,0.04083042
2843.067,0.04074222
2845.401,0.04051434
2847.739,0.03989521
2850.08,0.03912242
2852.425,0.03883213
2854.774,0.03850069
2857.127,0.03792238
2859.484,0.03782591
2861.844,0.03780483
2864.209,0.03720302
2866.577,0.0366158
2868.949,0.03609109
2871.325,0.0355409
2873.705,0.03545445
2876.089,0.0353083
2878.477,0.03492341
2880.869,0.03464566
2883.265,0.03420523
2885.664,0.0336771
2888.068,0.03400509
2890.476,0.03465058
2892.887,0.03421119
2895.303,0.0332789
2897.723,0.03265588
2900.146,0.03232927
2902.574,0.03195482
2905.006,0.03143747
2907.441,0.03126667
2909.881,0.03121969
2912.325,0.03106132
2914.773,0.03142173
2917.225,0.03216511
2919.681,0.03207379
2922.142,0.03146381
2924.606,0.03073933
2927.075,0.02994041
2929.547,0.02963964
2932.024,0.02959666
2934.505,0.02978607
2936.99,0.03020981
2939.479,0.03019848
2941.973,0.02972585
2944.471,0.0299341
2946.973,0.03154486
2949.479,0.03187428
2951.989,0.03073109
2954.504,0.03109707
2957.023,0.03121924
2959.546,0.02980969
2962.073,0.02873932
2964.605,0.0285664
2967.141,0.02897756
2969.681,0.02912513
2972.226,0.02961803
2974.775,0.03123987
2977.328,0.0314837
2979.886,0.02995769
2982.448,0.02902396
2985.015,0.02883319
2987.586,0.02881382
2990.161,0.02972382
2992.74,0.03052366
2995.324,0.03002289
2997.913,0.02972372
3000.506,0.03018116
3003.103,0.0307551
3005.705,0.03049671
3008.312,0.02973363
3010.922,0.0297648
3013.538,0.03057934
3016.158,0.03088879
3018.782,0.03032188
3021.411,0.03007216
3024.044,0.03022101
3026.683,0.03050038
3029.325,0.03199705
3031.972,0.0342372
3034.624,0.03413822
3037.281,0.032305
3039.942,0.03186571
3042.607,0.03286511
3045.278,0.03343294
3047.953,0.03281622
3050.632,0.0320784
3053.317,0.03185725
3056.006,0.0318973
3058.7,0.03220001
3061.398,0.03292832
3064.101,0.03408193
3066.809,0.0342791
3069.522,0.03316623
3072.239,0.03253395
3074.962,0.03261646
3077.689,0.03291339
3080.421,0.03313733
3083.157,0.03286734
3085.899,0.03318986
3088.645,0.03375179
3091.396,0.03326252
3094.153,0.03266425
3096.914,0.03284616
3099.679,0.03410241
3102.45,0.0345575
3105.226,0.03338922
3108.007,0.03283551
3110.792,0.03294327
3113.583,0.03302143
3116.378,0.03316808
3119.179,0.03323814
3121.985,0.03320733
3124.795,0.03313374
3127.611,0.03324682
3130.431,0.03348833
3133.257,0.03369169
3136.088,0.03372765
3138.924,0.03383756
3141.765,0.0341792
3144.611,0.03442467
3147.462,0.03460298
3150.319,0.03485197
3153.18,0.03518125
3156.047,0.03545311
3158.919,0.03564042
3161.796,0.03586681
3164.678,0.03610448
3167.566,0.03617499
3170.458,0.03633461
3173.356,0.03681327
3176.26,0.03752859
3179.168,0.03941205
3182.082,0.040667
3185.001,0.03952744
3187.926,0.03864213
3190.856,0.03956593
3193.791,0.04129222
3196.731,0.04162
3199.677,0.04080128
3202.629,0.04115193
3205.585,0.04194574
3208.548,0.04220439
3211.515,0.04378337
3214.488,0.04704386
3217.467,0.04890978
3220.451,0.0477491
3223.441,0.04650231
3226.436,0.04690489
3229.437,0.04689656
3232.443,0.04689015
3235.455,0.04770954
3238.472,0.0479692
3241.495,0.04849123
3244.523,0.0499619
3247.558,0.05119661
3250.598,0.05258847
3253.643,0.05438339
3256.694,0.05589294
3259.751,0.05561533
3262.814,0.05374276
3265.882,0.05364962
3268.956,0.05544476
3272.036,0.05621514
3275.122,0.05580444
3278.213,0.05615706
3281.31,0.05733066
3284.413,0.05867139
3287.522,0.05966309
3290.637,0.06004844
3293.757,0.06160698
3296.884,0.06355527
3300.016,0.06324352
3303.155,0.06294596
3306.299,0.06409587
3309.449,0.06441399
3312.605,0.06441928
3315.767,0.06526383
3318.936,0.06614607
3322.11,0.06738926
3325.29,0.06983928
3328.476,0.07227537
3331.669,0.0720444
3334.867,0.07009007
3338.072,0.06954187
3341.282,0.07030696
3344.499,0.07159779
3347.722,0.07309432
3350.952,0.07440207
3354.187,0.07453468
3357.429,0.07377663
3360.677,0.07450479
3363.931,0.07651834
3367.191,0.07757476
3370.458,0.07768051
3373.731,0.07773671
3377.01,0.07769563
3380.296,0.07811859
3383.588,0.07907457
3386.886,0.08001325
3390.191,0.08068924
3393.502,0.08167616
3396.82,0.08315465
3400.144,0.08441825
3403.475,0.08619006
3406.812,0.08766753
3410.156,0.08702465
3413.506,0.08617326
3416.862,0.08663057
3420.226,0.08803476
3423.596,0.08990176
3426.972,0.09066238
3430.355,0.09085203
3433.745,0.09192632
3437.141,0.0940149
3440.545,0.09702309
3443.954,0.0986533
3447.371,0.09751279
3450.794,0.09650091
3454.224,0.09706125
3457.661,0.09777382
3461.105,0.09887672
3464.556,0.10031275
3468.013,0.10076332
3471.477,0.10093553
3474.948,0.10158751
3478.426,0.10227823
3481.911,0.1031051
3485.403,0.10421221
3488.902,0.10629011
3492.408,0.10805203
3495.921,0.10763994
3499.441,0.10714177
3502.968,0.10794677
3506.502,0.10932739
3510.043,0.11033575
3513.592,0.11083061
3517.147,0.11183181
3520.71,0.11333304
3524.28,0.11439015
3527.857,0.11503816
3531.441,0.11707912
3535.032,0.11935063
3538.631,0.11948765
3542.237,0.11906467
3545.851,0.11936383
3549.471,0.12016471
3553.099,0.12114284
3556.735,0.12193123
3560.378,0.12283904
3564.028,0.12397503
3567.686,0.12533856
3571.351,0.12654881
3575.024,0.12718064
3578.704,0.12793999
3582.392,0.12952179
3586.088,0.13119273
3589.791,0.1318598
3593.501,0.13269917
3597.22,0.1341792
3600.946,0.13459056
3604.679,0.13455029
3608.421,0.13512595
3612.17,0.13648935
3615.926,0.13831277
3619.691,0.13905252
3623.463,0.13929365
3627.244,0.14011437
3631.032,0.14099328
3634.828,0.141809
3638.632,0.14275428
3642.444,0.14385259
3646.263,0.14529798
3650.091,0.14695324
3653.927,0.14783579
3657.771,0.14816044
3661.623,0.14906273
3665.483,0.15032971
3669.351,0.1513008
3673.227,0.15231907
3677.111,0.15405829
3681.004,0.15590986
3684.905,0.15686649
3688.814,0.1573215
3692.731,0.15803181
3696.656,0.15900779
3700.59,0.16016048
3704.532,0.16131388
3708.483,0.16225784
3712.442,0.16328528
3716.409,0.16448947
3720.385,0.16561485
3724.37,0.16657996
3728.362,0.1674855
3732.364,0.16852382
3736.374,0.16966054
3740.392,0.17097171
3744.419,0.17243819
3748.455,0.17343327
3752.499,0.17401125
3756.553,0.17467006
3760.614,0.17540621
3764.685,0.17619143
3768.764,0.17711664
3772.853,0.17818595
3776.95,0.17914492
3781.056,0.17983485
3785.17,0.18058697
3789.294,0.18160051
3793.427,0.18260516
3797.568,0.18353965
3801.719,0.18456045
3805.879,0.18547305
3810.048,0.18620366
3814.225,0.1869212
3818.412,0.18765191
3822.609,0.18855945
3826.814,0.18947423
3831.029,0.19030094
3835.252,0.19114748
3839.486,0.19199494
3843.728,0.192875
3847.98,0.19354254
3852.241,0.19411624
3856.512,0.19489057
3860.792,0.19575064
3865.081,0.19649078
3869.38,0.19711719
3873.689,0.19788408
3878.007,0.19873001
3882.334,0.19957344
3886.672,0.20044452
3891.019,0.20111008
3895.375,0.20168291
3899.742,0.2024076
3904.118,0.20320769
3908.504,0.20394774
3912.9,0.20468215
3917.305,0.20550496
3921.721,0.20634074
3926.146,0.20718053
3930.581,0.20797111
3935.027,0.20868584
3939.482,0.20940747
3943.948,0.21024868
3948.423,0.21113569
3952.909,0.21197519
3957.405,0.2129839
3961.911,0.21403489
3966.427,0.21493669
3970.954,0.21589695
3975.491,0.21690787
3980.038,0.21797139
3984.595,0.21904162
3989.163,0.21991584
3993.742,0.22068767
3998.33,0.22148312
4002.93,0.22228847
4007.54,0.22311399
4012.16,0.2240084
4016.791,0.22485685
4021.433,0.22561263
4026.086,0.22640378
4030.749,0.22731672
4035.423,0.22839915
4040.108,0.22951778
4044.804,0.23050847
4049.51,0.23151255
4054.228,0.23270331
4058.956,0.23390376
4063.695,0.2349987
4068.446,0.23609327
4073.207,0.23733688
4077.98,0.23875237
4082.764,0.24012073
4087.559,0.24142167
4092.365,0.24265828
4097.183,0.24383001
4102.012,0.24503772
4106.852,0.24634321
4111.703,0.2477652
4116.566,0.24922263
4121.441,0.25054787
4126.327,0.25189535
4131.224,0.25345743
4136.133,0.25497584
4141.054,0.25657678
4145.987,0.25818917
4150.931,0.25950832
4155.887,0.2608939
4160.854,0.26248362
4165.834,0.26410152
4170.826,0.26573186
4175.829,0.26740647
4180.844,0.26908276
4185.872,0.27091408
4190.911,0.27342675
4195.963,0.27736051
4201.026,0.28373852
4206.102,0.29311622
4211.19,0.30475765
4216.291,0.31748127
4221.404,0.33020835
4226.529,0.34201129
4231.666,0.35193154
4236.816,0.35809326
4241.979,0.35869125
4247.154,0.35322276
4252.341,0.3395566
4257.542,0.32912227
4262.754,0.33438349
4267.98,0.34779266
4273.219,0.35346996
4278.47,0.35373461
4283.734,0.35385325
4289.011,0.35497599
4294.301,0.35492406
4299.604,0.3531651
4304.92,0.35202882
4310.25,0.34968669
4315.592,0.34547657
4320.948,0.34207613
4326.317,0.33971324
4331.699,0.33730106
4337.095,0.3351493
4342.504,0.33360423
4347.926,0.33284361
4353.362,0.33284984
4358.811,0.33311693
4364.275,0.33341634
4369.751,0.33384011
4375.242,0.33441025
4380.746,0.33533719
4386.264,0.33690668
4391.796,0.33886665
4397.342,0.3406597
4402.902,0.34234625
4408.476,0.34420621
4414.064,0.34595836
4419.666,0.34752456
4425.282,0.34912511
4430.913,0.35070427
4436.558,0.35240195
4442.217,0.35413391
4447.891,0.3556038
4453.579,0.357067
4459.281,0.35878667
4464.998,0.3606827
4470.73,0.36250438
4476.477,0.36427778
4482.238,0.36613247
4488.014,0.36798358
4493.805,0.36978697
4499.611,0.37156676
4505.431,0.37346614
4511.267,0.37543453
4517.118,0.37727733
4522.984,0.37910213
4528.865,0.38090198
4534.762,0.38257032
4540.674,0.38428157
4546.601,0.38616538
4552.543,0.38813826
4558.502,0.38999709
4564.475,0.3917103
4570.465,0.39338223
4576.47,0.3949862
4582.491,0.39660222
4588.527,0.39832989
4594.58,0.40010859
4600.648,0.40189245
4606.732,0.40366408
4612.833,0.40533464
4618.949,0.40702769
4625.082,0.40878884
4631.231,0.41042952
4637.397,0.41213435
4643.578,0.41394153
4649.777,0.41568639
4655.991,0.41757237
4662.223,0.41941227
4668.471,0.42105195
4674.735,0.42301274
4681.017,0.425047
4687.315,0.4268076
4693.63,0.42866604
4699.962,0.43060127
4706.312,0.43259762
4712.678,0.43478701
4719.062,0.43696101
4725.463,0.43904549
4731.881,0.44100487
4738.316,0.44271648
4744.769,0.4444407
4751.24,0.44646921
4757.728,0.44864498
4764.234,0.45061107
4770.758,0.45232145
4777.299,0.45433752
4783.859,0.45678894
4790.436,0.45882862
4797.032,0.46025314
4803.645,0.46177779
4810.277,0.46372369
4816.927,0.46566825
4823.596,0.46732724
4830.283,0.46898123
4836.988,0.47139605
4843.712,0.473689
4850.455,0.47457433
4857.216,0.47540039
4863.996,0.47685647
4870.795,0.4783289
4877.613,0.47964902
4884.451,0.48087385
4891.307,0.48255687
4898.182,0.48422395
4905.077,0.48472512
4911.991,0.48508537
4918.925,0.48613748
4925.878,0.48747438
4932.851,0.48917167
4939.844,0.49093491
4946.856,0.49313795
4953.888,0.49639202
4960.941,0.49772548
4968.013,0.49683867
4975.105,0.49726206
4982.218,0.49866447
4989.351,0.49987285
4996.504,0.50142424
5003.678,0.50307019
5010.872,0.50651443
5018.087,0.51206697
5025.323,0.51382321
5032.58,0.51226454
5039.857,0.51239659
5047.156,0.5140001
5054.475,0.51586008
5061.816,0.51766496
5069.179,0.5197082
5076.562,0.52414342
5083.967,0.52838816
5091.394,0.52838053
5098.842,0.5285119
5106.312,0.53071126
5113.804,0.53268719
5121.318,0.53404992
5128.854,0.53565394
5136.412,0.54027731
5143.992,0.54769356
5151.595,0.54842725
5159.22,0.54420755
5166.868,0.54455212
5174.538,0.54684587
5182.231,0.5480556
5189.947,0.55191035
5197.686,0.55877549
5205.448,0.56418328
5213.233,0.56577185
5221.041,0.56162571
5228.873,0.56049976
5236.728,0.56401335
5244.607,0.5633447
5252.51,0.56178899
5260.436,0.56244666
5268.386,0.56551665
5276.36,0.56903858
5284.358,0.5730994
5292.381,0.57653513
5300.428,0.57401163
5308.499,0.57186227
5316.595,0.57309747
5324.715,0.5744519
5332.86,0.57632678
5341.031,0.58752856
5349.226,0.60322865
5357.446,0.59896283
5365.692,0.58871847
5373.962,0.58906515
5382.259,0.59131684
5390.581,0.59279494
5398.928,0.59637897
5407.302,0.6056476
5415.701,0.62270673
5424.127,0.62837579
5432.579,0.61633098
5441.057,0.61185849
5449.561,0.61623608
5458.092,0.62756297
5466.65,0.64014707
5475.234,0.63899002
5483.846,0.6313901
5492.484,0.62434468
5501.15,0.62494309
5509.843,0.63002648
5518.564,0.63889181
5527.312,0.64387233
5536.087,0.64364526
5544.891,0.66461241
5553.723,0.69266689
5562.582,0.69605302
5571.47,0.64529336
5580.387,0.60405757
5589.332,0.61585035
5598.305,0.61714678
5607.307,0.61763512
5616.339,0.61750037
5625.399,0.62176124
5634.489,0.6358851
5643.607,0.64529819
5652.756,0.63863745
5661.934,0.63404706
5671.142,0.63956133
5680.379,0.64440879
5689.647,0.64403183
5698.945,0.64885503
5708.274,0.66417461
5717.633,0.67015243
5727.022,0.66425416
5736.443,0.66500766
5745.894,0.66720962
5755.377,0.67530082
5764.89,0.6886633
5774.436,0.68035645
5784.012,0.66598885
5793.621,0.66223442
5803.262,0.66912833
5812.934,0.69232521
5822.639,0.70997394
5832.376,0.6946549
5842.146,0.6810995
5851.948,0.68810907
5861.783,0.70201277
5871.652,0.7175066
5881.553,0.7324283
5891.488,0.72491729
5901.457,0.70307295
5911.459,0.69523128
5921.495,0.70943709
5931.565,0.73412267
5941.67,0.72834887
5951.809,0.71005796
5961.982,0.71313581
5972.19,0.72197476
5982.433,0.72760644
5992.711,0.72056529
6003.025,0.7125911
6013.374,0.71369822
6023.759,0.71001548
6034.179,0.72889053
6044.636,0.7600612
6055.129,0.7532162
6065.658,0.748787
6076.224,0.73849715
6086.826,0.72147057
6097.466,0.73368757
6108.143,0.75462002
6118.857,0.74160925
6129.609,0.72872314
6140.398,0.73624172
6151.226,0.74462662
6162.091,0.74328488
6172.996,0.74665173
6183.938,0.75101774
6194.92,0.74130872
6205.94,0.73802572
6217.0,0.74073678
6228.099,0.74112656
6239.237,0.74169009
6250.416,0.74236434
6261.635,0.74529129
6272.893,0.7477607
6284.193,0.74842453
6295.533,0.74953563
6306.914,0.75137711
6318.336,0.75515509
6329.799,0.76895008
6341.304,0.77912159
6352.851,0.7760997
6364.44,0.78046446
6376.071,0.78037472
6387.745,0.77941524
6399.461,0.80293816
6411.221,0.82778485
6423.023,0.81083893
6434.869,0.79412172
6446.759,0.79077351
6458.693,0.79563198
6470.671,0.81630812
6482.693,0.83740847
6494.76,0.82488632
6506.872,0.81113989
6519.029,0.80964154
6531.231,0.80725733
6543.48,0.81426602
6555.774,0.82807971
6568.114,0.83584985
6580.501,0.83376941
6592.934,0.82550923
6605.415,0.8225753
6617.943,0.84017317
6630.518,0.85366785
6643.141,0.82915512
6655.812,0.8178987
6668.532,0.82667308
6681.3,0.824416
6694.117,0.82499927
6706.983,0.83570938
6719.899,0.82943319
6732.864,0.81808506
6745.879,0.81792113
6758.945,0.82579794
6772.062,0.84136274
6785.229,0.84540075
6798.448,0.83180207
6811.718,0.8295551
6825.039,0.83252237
6838.413,0.83909335
6851.84,0.85696996
6865.319,0.8517996
6878.851,0.83572136
6892.437,0.83494702
6906.076,0.83512322
6919.769,0.83069226
6933.517,0.83369075
6947.319,0.84568672
6961.176,0.84805675
6975.089,0.84353405
6989.057,0.84342945
7003.081,0.84379681
7017.161,0.84794109
7031.298,0.85792166
7045.492,0.85974402
7059.743,0.8503357
7074.052,0.84623574
7088.419,0.84811294
7102.845,0.85152954
7117.329,0.8540128
7131.872,0.85819372
7146.475,0.86579321
7161.137,0.86611058
7175.86,0.86056546
7190.643,0.86198997
7205.487,0.86390503
7220.393,0.86055234
7235.36,0.86083783
7250.39,0.86587747
7265.481,0.87055968
7280.636,0.86974786
7295.854,0.86752713
7311.135,0.87054072
7326.481,0.87639623
7341.891,0.87581928
7357.366,0.87202138
7372.906,0.87186967
7388.512,0.8727021
7404.184,0.87364582
7419.922,0.8744721
7435.728,0.87828657
7451.601,0.88495293
7467.541,0.88532801
7483.55,0.88119632
7499.628,0.88032205
7515.774,0.88158325
7531.99,0.88278503
7548.277,0.88465435
7564.633,0.88745726
7581.061,0.88927547
7597.56,0.88971704
7614.131,0.88957117
7630.774,0.88944461
7647.491,0.89007528
7664.28,0.89098892
7681.143,0.89199235
7698.08,0.89319129
7715.093,0.89427886
7732.18,0.8955473
7749.343,0.89694756
7766.583,0.89758663
7783.899,0.89811979
7801.292,0.89916709
7818.764,0.90013799
7836.313,0.90156685
7853.942,0.90352351
7871.649,0.9047739
7889.437,0.90548751
7907.305,0.90679048
7925.254,0.90834077
7943.285,0.90930251
7961.398,0.91006728
7979.594,0.91108477
7997.872,0.91221137
8016.235,0.91350354
8034.682,0.91484745
8053.214,0.91577452
8071.832,0.9166132
8090.535,0.91783337
8109.326,0.91907855
8128.204,0.92020796
8147.169,0.92129098
8166.224,0.92220294
8185.368,0.92306767
8204.601,0.92391315
8223.925,0.92462415
8243.34,0.92526693
8262.847,0.92591577
8282.446,0.92668207
8302.139,0.92752094
8321.925,0.92828333
8341.805,0.92903645
8361.781,0.92977423
8381.852,0.93055208
8402.02,0.93139423
8422.285,0.93211837
8442.648,0.9327651
8463.109,0.93341811
8483.67,0.93411845
8504.331,0.93481879
8525.092,0.9354587
8545.955,0.93621793
8566.921,0.93700873
8587.989,0.93761276
8609.161,0.93818028
8630.437,0.93886643
8651.819,0.93964564
8673.307,0.94036972
8694.902,0.94107386
8716.604,0.94184529
8738.415,0.94255818
8760.335,0.94325844
8782.365,0.94408919
8804.507,0.94493453
8826.76,0.9455614
8849.125,0.94614657
8871.604,0.94689274
8894.198,0.94761724
8916.907,0.94826425
8939.732,0.94885981
8962.673,0.94942845
8985.733,0.95007561
9008.912,0.95058228
9032.21,0.9508081
9055.629,0.9509768
9079.17,0.95114722
9102.833,0.95133485
9126.62,0.95154646
9150.531,0.95167958
9174.568,0.95176985
9198.731,0.951822
9223.022,0.95172013
9247.441,0.95172438
9271.99,0.95194543
9296.669,0.9520918
9321.48,0.95218892
9346.423,0.95243013
9371.5,0.95274053
9396.712,0.95287819
9422.06,0.95294199
9447.545,0.95320282
9473.167,0.95361959
9498.929,0.95411646
9524.832,0.9545723
9550.876,0.95489239
9577.062,0.95524107
9603.393,0.95572424
9629.868,0.95620672
9656.49,0.9565878
9683.259,0.9568956
9710.176,0.95711219
9737.244,0.95732099
9764.463,0.95767179
9791.834,0.95817979
9819.359,0.95875257
9847.039,0.95933614
9874.875,0.95982255
9902.869,0.9601863
9931.022,0.96048023
9959.336,0.96075999
9987.811,0.96117689
10016.449,0.96166296
10045.252,0.96212582
10074.221,0.96264267
10103.357,0.96313922
10132.662,0.96357684
10162.137,0.96403682
10191.784,0.96436085
10221.604,0.96465407
10251.6,0.96514913
10281.771,0.96559078
10312.121,0.96594235
10342.65,0.96635739
10373.36,0.96678674
10404.253,0.96714992
10435.331,0.96742241
10466.594,0.96762952
10498.045,0.96785666
10529.686,0.96810972
10561.517,0.96825606
10593.542,0.96840742
10625.761,0.96858349
10658.176,0.96871724
10690.79,0.96894538
10723.604,0.96921467
10756.619,0.96946617
10789.839,0.96972268
10823.264,0.96990485
10856.896,0.96997003
10890.738,0.9699889
10924.791,0.97004527
10959.058,0.97018592
10993.541,0.97040291
11028.24,0.97052209
11063.16,0.97043028
11098.301,0.97030819
11133.665,0.97028571
11169.256,0.97042975
11205.075,0.97067859
11241.124,0.97099001
11277.405,0.97127426
11313.921,0.97121692
11350.675,0.97107086
11387.667,0.97118713
11424.901,0.97143591
11462.38,0.97159138
11500.105,0.97168396
11538.079,0.97189589
11576.304,0.97215362
11614.783,0.97227084
11653.518,0.97234543
11692.513,0.97248669
11731.769,0.97265917
11771.29,0.97296505
11811.077,0.97316924
11851.134,0.97329493
11891.464,0.97357628
11932.068,0.97369708
11972.951,0.973682
12014.114,0.97366096
12055.562,0.97372818
12097.296,0.97385327
12139.32,0.97372759
12181.636,0.97367745
12224.249,0.9738348
12267.16,0.97388736
12310.373,0.97399491
12353.892,0.97411637
12397.719,0.97434438
12441.859,0.97461104
12486.313,0.97467046
12531.086,0.97485096
12576.18,0.97498626
12621.601,0.97492837
12667.35,0.97496829
12713.432,0.97514007
12759.85,0.97532987
12806.608,0.9755668
12853.71,0.97586709
12901.159,0.97612086
12948.96,0.97630021
12997.116,0.97647803
13045.631,0.97661253
13094.51,0.9765523
13143.756,0.97651687
13193.373,0.97657492
13243.366,0.97653576
13293.74,0.97654332
13344.497,0.97655885
13395.644,0.97650133
13447.183,0.9764866
13499.121,0.97646473
13551.461,0.97620817
13604.208,0.97603263
13657.367,0.97640565
13710.943,0.97657263
13764.941,0.97636826
13819.365,0.97654231
13874.221,0.97635663
13929.515,0.97566335
13985.25,0.97542326
14041.433,0.9751834
14098.068,0.97466475
14155.163,0.97409208
14212.721,0.97332131
14270.749,0.97277522
14329.252,0.97248204
14388.237,0.97185823
14447.709,0.97073416
14507.674,0.96933345
14568.139,0.96760045
14629.109,0.96542066
14690.592,0.96301323
14752.594,0.95991221
14815.121,0.95606187
14878.179,0.95436452
14941.777,0.95167752
15005.92,0.9423877
15070.616,0.93265532
15135.871,0.92264689
15201.695,0.90909306
15268.092,0.8934972
15335.072,0.87558836
15402.642,0.853251
15470.81,0.82618055
15539.583,0.79708182
15608.97,0.76183963
15678.979,0.72227749
15749.619,0.68557102
15820.897,0.6483464
15892.824,0.60924784
15965.407,0.57210164
