Database of Origin,University of Winnipeg Spectrophotometer Facility
Sample Description,See Master Clays in HOSERLab database
Date Added,2016-12-11 20:56:55.233025

Data ID,FTIR_CLAY_08        
Sample ID,HIS001
Mineral Name,Hisingerite
Grain Size,<45 m
Viewing Geometry,35/0
Resolution,11-72 nm
Material Class,Phyllosilicate

Wavelength
2001.142,0.39712965
2002.307,0.397805
2003.474,0.39829015
2004.643,0.39867178
2005.812,0.39914226
2006.983,0.39974214
2008.155,0.40025756
2009.329,0.40083337
2010.504,0.40143327
2011.68,0.4017751
2012.858,0.40220695
2014.037,0.40268902
2015.217,0.40309167
2016.399,0.40353873
2017.582,0.40401599
2018.766,0.40469467
2019.952,0.40532718
2021.139,0.40577884
2022.328,0.40626807
2023.518,0.40668876
2024.709,0.40711549
2025.902,0.40768503
2027.096,0.40818119
2028.291,0.40839722
2029.488,0.40861711
2030.686,0.40928696
2031.886,0.41006889
2033.087,0.41032632
2034.289,0.41054152
2035.493,0.41120303
2036.698,0.41174595
2037.905,0.41203552
2039.113,0.41244462
2040.322,0.41287383
2041.533,0.41304929
2042.746,0.41339302
2043.959,0.41400954
2045.174,0.4142727
2046.391,0.41444758
2047.609,0.41473778
2048.828,0.41489484
2050.049,0.41514575
2051.271,0.41555826
2052.495,0.41589063
2053.72,0.41597999
2054.947,0.41595497
2056.175,0.41624042
2057.404,0.41672763
2058.635,0.41697975
2059.867,0.41718706
2061.101,0.41734336
2062.336,0.41771759
2063.573,0.41835892
2064.811,0.41860208
2066.051,0.41853507
2067.292,0.4183729
2068.534,0.41861343
2069.778,0.41938501
2071.024,0.41985228
2072.271,0.41991658
2073.519,0.4200169
2074.769,0.42019754
2076.02,0.42034705
2077.273,0.42046517
2078.528,0.42063621
2079.784,0.42072274
2081.041,0.42073222
2082.3,0.42093155
2083.56,0.42104416
2084.822,0.421318
2086.085,0.42180672
2087.35,0.42185716
2088.617,0.42180403
2089.885,0.4219908
2091.154,0.42215178
2092.425,0.42223138
2093.697,0.42240456
2094.971,0.42273935
2096.247,0.42310059
2097.524,0.42354019
2098.803,0.42389912
2100.083,0.42401678
2101.364,0.42423148
2102.648,0.42435071
2103.932,0.42462091
2105.219,0.42532337
2106.506,0.42551674
2107.796,0.42515466
2109.087,0.42495785
2110.379,0.42521296
2111.673,0.42596869
2112.969,0.42642309
2114.266,0.42632202
2115.565,0.42655166
2116.865,0.42695595
2118.167,0.42700352
2119.471,0.42703551
2120.776,0.42719298
2122.082,0.42708947
2123.391,0.4268979
2124.7,0.42715745
2126.012,0.42722965
2127.325,0.42665261
2128.64,0.4261584
2129.956,0.42605802
2131.274,0.4260728
2132.593,0.42620992
2133.914,0.42663245
2135.237,0.42688841
2136.561,0.42686468
2137.887,0.42685512
2139.214,0.42700844
2140.544,0.42724262
2141.874,0.42700826
2143.207,0.42653828
2144.541,0.42642381
2145.876,0.42651724
2147.214,0.42646486
2148.553,0.42647838
2149.893,0.42651222
2151.235,0.42649982
2152.579,0.42659309
2153.925,0.42621638
2155.272,0.42591599
2156.621,0.42572001
2157.972,0.42492536
2159.324,0.42444127
2160.678,0.42429524
2162.033,0.42430737
2163.39,0.42478663
2164.749,0.4250237
2166.11,0.4247949
2167.472,0.42465758
2168.836,0.42473377
2170.202,0.42475037
2171.569,0.42446937
2172.938,0.4240058
2174.309,0.42383174
2175.682,0.42379082
2177.056,0.42347973
2178.432,0.42333409
2179.809,0.42344802
2181.189,0.42338387
2182.57,0.42331647
2183.952,0.42297967
2185.337,0.42216644
2186.723,0.42173681
2188.111,0.42157704
2189.501,0.42129892
2190.892,0.42120991
2192.285,0.4210821
2193.68,0.42072723
2195.077,0.42036831
2196.476,0.42013662
2197.876,0.41991358
2199.278,0.4197008
2200.682,0.41966956
2202.087,0.41940776
2203.494,0.41892439
2204.903,0.41881526
2206.314,0.41850555
2207.727,0.41827478
2209.141,0.41867323
2210.557,0.41890565
2211.975,0.41877883
2213.395,0.4183191
2214.817,0.41768981
2216.24,0.41708122
2217.665,0.41704474
2219.092,0.41753234
2220.521,0.41734438
2221.952,0.41678287
2223.384,0.41647273
2224.818,0.41619534
2226.254,0.41586838
2227.692,0.41555046
2229.132,0.41538067
2230.574,0.41514872
2232.017,0.41462494
2233.462,0.41407264
2234.91,0.41366821
2236.359,0.41335232
2237.809,0.41307249
2239.262,0.4127585
2240.717,0.41241581
2242.173,0.41203387
2243.631,0.41151796
2245.092,0.41099712
2246.554,0.41058405
2248.017,0.41001447
2249.483,0.40922234
2250.951,0.40844666
2252.421,0.40761048
2253.892,0.40686116
2255.365,0.40657768
2256.841,0.40629482
2258.318,0.40577698
2259.797,0.4051401
2261.278,0.40413528
2262.761,0.40293074
2264.246,0.40197347
2265.732,0.40111932
2267.221,0.39997853
2268.712,0.39858817
2270.204,0.39733048
2271.699,0.39638923
2273.195,0.39539366
2274.694,0.39438972
2276.194,0.39341283
2277.696,0.39215619
2279.201,0.3906811
2280.707,0.38930907
2282.215,0.38810674
2283.725,0.38720154
2285.237,0.38646216
2286.752,0.38541493
2288.268,0.38419765
2289.786,0.38289635
2291.306,0.38163455
2292.828,0.38091673
2294.352,0.38075993
2295.878,0.38073392
2297.406,0.38052516
2298.936,0.38003443
2300.468,0.37944587
2302.002,0.37890215
2303.539,0.37852569
2305.077,0.37835556
2306.617,0.37801116
2308.159,0.37776538
2309.703,0.37799124
2311.25,0.3782496
2312.798,0.37829537
2314.348,0.37856086
2315.901,0.37890718
2317.455,0.37889414
2319.012,0.37903147
2320.571,0.37946267
2322.131,0.38008397
2323.694,0.38074719
2325.259,0.38127449
2326.826,0.38183771
2328.395,0.38224021
2329.966,0.38222953
2331.54,0.38187357
2333.115,0.38162195
2334.692,0.38140862
2336.272,0.38121518
2337.854,0.3814272
2339.437,0.38131053
2341.023,0.38072291
2342.611,0.38052589
2344.201,0.38042647
2345.794,0.37977462
2347.388,0.37897064
2348.985,0.37843347
2350.583,0.37804558
2352.184,0.3777101
2353.787,0.37729473
2355.393,0.37683974
2357.0,0.37632839
2358.609,0.37553157
2360.221,0.37471801
2361.835,0.37425484
2363.451,0.37375142
2365.069,0.37281531
2366.69,0.37196918
2368.312,0.37130399
2369.937,0.37029274
2371.564,0.3692479
2373.194,0.36828613
2374.825,0.36730562
2376.459,0.36673019
2378.095,0.36604061
2379.733,0.36500249
2381.373,0.36411831
2383.016,0.36326238
2384.661,0.36227043
2386.308,0.36118246
2387.957,0.36053581
2389.609,0.36007384
2391.263,0.35938386
2392.919,0.35873148
2394.577,0.35818655
2396.238,0.35768005
2397.901,0.35697717
2399.566,0.35626451
2401.233,0.35582099
2402.903,0.35527768
2404.575,0.35435339
2406.25,0.3535454
2407.926,0.35302263
2409.606,0.35255621
2411.287,0.3518752
2412.971,0.35097934
2414.657,0.35030773
2416.345,0.34983454
2418.036,0.34917922
2419.729,0.3482195
2421.424,0.34748206
2423.122,0.34705799
2424.822,0.34642665
2426.524,0.3456614
2428.229,0.34469826
2429.936,0.34370572
2431.646,0.34299115
2433.358,0.34226455
2435.072,0.34131029
2436.789,0.34019662
2438.508,0.339405
2440.229,0.33877264
2441.953,0.33780411
2443.679,0.33687683
2445.408,0.33615557
2447.139,0.33529333
2448.873,0.3340798
2450.609,0.33276222
2452.347,0.33195697
2454.088,0.33129581
2455.831,0.33027809
2457.577,0.32907656
2459.325,0.32794529
2461.076,0.3270848
2462.829,0.32633958
2464.585,0.32546354
2466.343,0.32454485
2468.104,0.32375245
2469.867,0.32291539
2471.632,0.32203887
2473.4,0.32107689
2475.171,0.3203034
2476.944,0.31967618
2478.72,0.31879339
2480.498,0.31802484
2482.278,0.31726511
2484.062,0.31631322
2485.847,0.31532542
2487.636,0.31449593
2489.427,0.31404502
2491.22,0.31352885
2493.016,0.3127079
2494.814,0.31202523
2496.615,0.31158104
2498.419,0.31103959
2500.225,0.31030471
2502.034,0.3096834
2503.845,0.30920084
2505.659,0.30842271
2507.476,0.30766938
2509.295,0.30733692
2511.117,0.30708157
2512.942,0.30674066
2514.769,0.30627024
2516.598,0.30581725
2518.431,0.30554646
2520.266,0.30554363
2522.103,0.30564595
2523.944,0.30533237
2525.787,0.30473257
2527.632,0.30431232
2529.48,0.30442791
2531.331,0.30501999
2533.185,0.30538158
2535.041,0.30515195
2536.9,0.30435887
2538.762,0.30370596
2540.627,0.30428873
2542.494,0.30526604
2544.364,0.30496007
2546.236,0.30466337
2548.112,0.30497483
2549.99,0.30556036
2551.87,0.30590499
2553.754,0.30472337
2555.64,0.30323426
2557.529,0.30344056
2559.421,0.30641936
2561.316,0.31044683
2563.213,0.31042914
2565.113,0.30664057
2567.016,0.30505491
2568.922,0.30566055
2570.831,0.30576663
2572.742,0.30647879
2574.656,0.30726247
2576.573,0.3063704
2578.493,0.30457297
2580.416,0.30466197
2582.342,0.30695603
2584.27,0.30709387
2586.201,0.30561066
2588.135,0.30439039
2590.072,0.30222126
2592.012,0.30396305
2593.955,0.31211181
2595.9,0.31014075
2597.849,0.30081958
2599.8,0.29838556
2601.755,0.30031012
2603.712,0.30331258
2605.672,0.30381297
2607.635,0.30021112
2609.601,0.29667994
2611.57,0.29436681
2613.542,0.29393556
2615.517,0.29644504
2617.495,0.29792527
2619.475,0.29626272
2621.459,0.2921323
2623.446,0.28847633
2625.435,0.28863598
2627.428,0.29007357
2629.424,0.29101519
2631.423,0.28937548
2633.424,0.28480717
2635.429,0.28084019
2637.437,0.27801874
2639.447,0.27673396
2641.461,0.27594562
2643.478,0.2749317
2645.498,0.27376703
2647.521,0.27084335
2649.547,0.26839114
2651.576,0.2682751
2653.609,0.26749275
2655.644,0.26431103
2657.682,0.26174845
2659.724,0.26051105
2661.768,0.25860187
2663.816,0.260252
2665.867,0.2642353
2667.921,0.26224747
2669.978,0.25923072
2672.038,0.25083874
2674.102,0.24426804
2676.168,0.246084
2678.238,0.24362989
2680.311,0.23223951
2682.387,0.22526881
2684.467,0.22190367
2686.549,0.21613112
2688.635,0.20727913
2690.724,0.19985873
2692.816,0.19753225
2694.911,0.19281779
2697.01,0.17896034
2699.112,0.16871334
2701.217,0.16350257
2703.325,0.15716586
2705.437,0.1512603
2707.552,0.1508397
2709.67,0.15539121
2711.791,0.14966057
2713.916,0.13423387
2716.044,0.12395766
2718.175,0.12453062
2720.31,0.13137612
2722.448,0.12584885
2724.589,0.11370674
2726.734,0.09794451
2728.882,0.08412953
2731.034,0.07609561
2733.188,0.07151784
2735.347,0.06677883
2737.508,0.06211493
2739.673,0.06236315
2741.841,0.05718855
2744.013,0.04626864
2746.188,0.04039403
2748.367,0.03784942
2750.549,0.03618037
2752.734,0.03580362
2754.923,0.03748681
2757.115,0.03576392
2759.311,0.03158207
2761.51,0.03074686
2763.713,0.03132912
2765.919,0.03080064
2768.129,0.03023592
2770.342,0.02991875
2772.559,0.02828417
2774.779,0.02650571
2777.003,0.02599809
2779.23,0.0261122
2781.461,0.02597066
2783.696,0.02562164
2785.934,0.02618411
2788.175,0.02659547
2790.42,0.02482684
2792.669,0.02373377
2794.922,0.02370731
2797.178,0.02326524
2799.437,0.02287199
2801.7,0.02359173
2803.967,0.02468104
2806.238,0.02355393
2808.512,0.02232589
2810.789,0.02196085
2813.071,0.0218948
2815.356,0.02197685
2817.645,0.02206438
2819.937,0.02231533
2822.233,0.02197519
2824.533,0.02122014
2826.837,0.02119833
2829.144,0.02130337
2831.455,0.02120424
2833.77,0.02154999
2836.089,0.02160046
2838.411,0.02105386
2840.737,0.020392
2843.067,0.0197163
2845.401,0.01939327
2847.739,0.01957746
2850.08,0.01964443
2852.425,0.01928286
2854.774,0.01918864
2857.127,0.01895024
2859.484,0.01900633
2861.844,0.01928419
2864.209,0.01905054
2866.577,0.01889556
2868.949,0.01887227
2871.325,0.01877781
2873.705,0.01845689
2876.089,0.01802096
2878.477,0.01791488
2880.869,0.01793968
2883.265,0.01777003
2885.664,0.01770364
2888.068,0.01811956
2890.476,0.01836967
2892.887,0.01772789
2895.303,0.01721606
2897.723,0.01730428
2900.146,0.01732175
2902.574,0.01719743
2905.006,0.01706896
2907.441,0.01676413
2909.881,0.01660825
2912.325,0.01678314
2914.773,0.01699424
2917.225,0.01731773
2919.681,0.01742939
2922.142,0.01713841
2924.606,0.01688969
2927.075,0.01644492
2929.547,0.01601953
2932.024,0.01603495
2934.505,0.01621125
2936.99,0.01654276
2939.479,0.01684214
2941.973,0.01674548
2944.471,0.016576
2946.973,0.01718921
2949.479,0.017394
2951.989,0.01660387
2954.504,0.01669498
2957.023,0.01696909
2959.546,0.0162568
2962.073,0.01586309
2964.605,0.01593853
2967.141,0.01606777
2969.681,0.01625826
2972.226,0.01653084
2974.775,0.01712173
2977.328,0.01744579
2979.886,0.01708884
2982.448,0.01675792
2985.015,0.01654065
2987.586,0.01630512
2990.161,0.0167386
2992.74,0.01715871
2995.324,0.01678603
2997.913,0.01650872
3000.506,0.01680415
3003.103,0.01713986
3005.705,0.01692073
3008.312,0.01650965
3010.922,0.01659923
3013.538,0.01712568
3016.158,0.01733492
3018.782,0.01710163
3021.411,0.01704968
3024.044,0.01721837
3026.683,0.01719181
3029.325,0.01776348
3031.972,0.01923561
3034.624,0.01928707
3037.281,0.01802342
3039.942,0.01781254
3042.607,0.01849777
3045.278,0.01899714
3047.953,0.0188864
3050.632,0.0186024
3053.317,0.01845847
3056.006,0.0183378
3058.7,0.01851401
3061.398,0.01892142
3064.101,0.01969975
3066.809,0.02019615
3069.522,0.01968267
3072.239,0.01928677
3074.962,0.01948724
3077.689,0.01973603
3080.421,0.01993037
3083.157,0.02007867
3085.899,0.02050369
3088.645,0.02098714
3091.396,0.02092522
3094.153,0.02093899
3096.914,0.02124987
3099.679,0.02198151
3102.45,0.02227284
3105.226,0.02163424
3108.007,0.02131896
3110.792,0.02148097
3113.583,0.02186549
3116.378,0.02221144
3119.179,0.02233519
3121.985,0.02252466
3124.795,0.02283217
3127.611,0.02311796
3130.431,0.02316861
3133.257,0.02317111
3136.088,0.02345876
3138.924,0.0239238
3141.765,0.02414357
3144.611,0.02421069
3147.462,0.02456184
3150.319,0.02505942
3153.18,0.02549837
3156.047,0.02578947
3158.919,0.02600799
3161.796,0.0262413
3164.678,0.0266591
3167.566,0.02702144
3170.458,0.02745584
3173.356,0.02815143
3176.26,0.02869816
3179.168,0.02995338
3182.082,0.03111548
3185.001,0.03066736
3187.926,0.03020247
3190.856,0.03079501
3193.791,0.03201843
3196.731,0.03261521
3199.677,0.03237514
3202.629,0.03261113
3205.585,0.03311776
3208.548,0.03344827
3211.515,0.03474158
3214.488,0.03734719
3217.467,0.03901099
3220.451,0.03822007
3223.441,0.03733087
3226.436,0.03780053
3229.437,0.0377244
3232.443,0.03769877
3235.455,0.03851464
3238.472,0.03884758
3241.495,0.03932902
3244.523,0.04064469
3247.558,0.04173304
3250.598,0.0426529
3253.643,0.04397586
3256.694,0.04527982
3259.751,0.04529437
3262.814,0.0439884
3265.882,0.04383538
3268.956,0.0453355
3272.036,0.04615051
3275.122,0.04591172
3278.213,0.04624689
3281.31,0.04709251
3284.413,0.04803046
3287.522,0.04912491
3290.637,0.04986204
3293.757,0.05108185
3296.884,0.05267874
3300.016,0.0527345
3303.155,0.05258881
3306.299,0.05346321
3309.449,0.05392234
3312.605,0.05417233
3315.767,0.05479523
3318.936,0.05550605
3322.11,0.05671727
3325.29,0.05891471
3328.476,0.061248
3331.669,0.06154248
3334.867,0.06021587
3338.072,0.05983246
3341.282,0.06056621
3344.499,0.06164743
3347.722,0.06275432
3350.952,0.06390604
3354.187,0.06439425
3357.429,0.06408766
3360.677,0.06464449
3363.931,0.06623056
3367.191,0.06737995
3370.458,0.06773494
3373.731,0.06792824
3377.01,0.0679936
3380.296,0.06837602
3383.588,0.06937383
3386.886,0.07050376
3390.191,0.07143694
3393.502,0.07258951
3396.82,0.07409499
3400.144,0.07517118
3403.475,0.07646147
3406.812,0.07770094
3410.156,0.07735763
3413.506,0.0768978
3416.862,0.07751347
3420.226,0.07894038
3423.596,0.08108756
3426.972,0.08251344
3430.355,0.08322329
3433.745,0.08456438
3437.141,0.08675562
3440.545,0.08973582
3443.954,0.09181613
3447.371,0.09173419
3450.794,0.0915297
3454.224,0.09239725
3457.661,0.09341569
3461.105,0.09463398
3464.556,0.09616105
3468.013,0.09711922
3471.477,0.09771537
3474.948,0.09849768
3478.426,0.09925469
3481.911,0.10009236
3485.403,0.10126043
3488.902,0.10348163
3492.408,0.1053617
3495.921,0.10514018
3499.441,0.10487108
3502.968,0.10575573
3506.502,0.10726718
3510.043,0.10894593
3513.592,0.11042443
3517.147,0.11208369
3520.71,0.11400984
3524.28,0.11571229
3527.857,0.11694395
3531.441,0.11898448
3535.032,0.12148407
3538.631,0.12238909
3542.237,0.12259822
3545.851,0.12345407
3549.471,0.12474164
3553.099,0.12624506
3556.735,0.12780053
3560.378,0.12922298
3564.028,0.1305198
3567.686,0.13222213
3571.351,0.13400164
3575.024,0.13514106
3578.704,0.13635174
3582.392,0.13821006
3586.088,0.14002389
3589.791,0.14113082
3593.501,0.14236193
3597.22,0.14399342
3600.946,0.14489069
3604.679,0.14554239
3608.421,0.14663506
3612.17,0.148227
3615.926,0.15009393
3619.691,0.15120933
3623.463,0.15189809
3627.244,0.15289182
3631.032,0.15412469
3634.828,0.15536171
3638.632,0.1564661
3642.444,0.1577138
3646.263,0.15932247
3650.091,0.16115297
3653.927,0.16256592
3657.771,0.16343151
3661.623,0.16456166
3665.483,0.16618694
3669.351,0.16770398
3673.227,0.16904142
3677.111,0.1707085
3681.004,0.1725172
3684.905,0.17383556
3688.814,0.17485288
3692.731,0.1760242
3696.656,0.17742399
3700.59,0.17889574
3704.532,0.18019687
3708.483,0.1814315
3712.442,0.18279713
3716.409,0.18424862
3720.385,0.18562715
3724.37,0.18695613
3728.362,0.18829122
3732.364,0.18948503
3736.374,0.19076159
3740.392,0.19238883
3744.419,0.19409738
3748.455,0.19558908
3752.499,0.19670314
3756.553,0.19758096
3760.614,0.19862872
3764.685,0.20002048
3768.764,0.20151395
3772.853,0.20290738
3776.95,0.20422808
3781.056,0.20549187
3785.17,0.20686305
3789.294,0.20828934
3793.427,0.20954162
3797.568,0.21076674
3801.719,0.21215885
3805.879,0.21348966
3810.048,0.21459803
3814.225,0.21578271
3818.412,0.2170184
3822.609,0.21816821
3826.814,0.21930056
3831.029,0.22043321
3835.252,0.22165258
3839.486,0.22286171
3843.728,0.22391981
3847.98,0.22491927
3852.241,0.22610333
3856.512,0.2274304
3860.792,0.22864503
3865.081,0.22978918
3869.38,0.23095151
3873.689,0.23208654
3878.007,0.2332288
3882.334,0.23448892
3886.672,0.23572127
3891.019,0.23688274
3895.375,0.23816747
3899.742,0.23939182
3904.118,0.24051942
3908.504,0.24168475
3912.9,0.24276217
3917.305,0.24384263
3921.721,0.24502025
3926.146,0.246133
3930.581,0.24720825
3935.027,0.24824313
3939.482,0.24925208
3943.948,0.25048919
3948.423,0.25165803
3952.909,0.25259167
3957.405,0.2535967
3961.911,0.25472772
3966.427,0.25585995
3970.954,0.25700526
3975.491,0.25823564
3980.038,0.25927822
3984.595,0.26015126
3989.163,0.26097684
3993.742,0.26182668
3998.33,0.26268984
4002.93,0.26338414
4007.54,0.26423204
4012.16,0.26520661
4016.791,0.26597363
4021.433,0.26667877
4026.086,0.26743427
4030.749,0.26810592
4035.423,0.26882388
4040.108,0.26980142
4044.804,0.270726
4049.51,0.27153353
4054.228,0.27248756
4058.956,0.27359635
4063.695,0.27452824
4068.446,0.27531597
4073.207,0.2763518
4077.98,0.27735066
4082.764,0.27821648
4087.559,0.27922831
4092.365,0.28048375
4097.183,0.28178142
4102.012,0.28302757
4106.852,0.28436127
4111.703,0.28555846
4116.566,0.28667156
4121.441,0.28791142
4126.327,0.28919419
4131.224,0.29056925
4136.133,0.29216595
4141.054,0.29379693
4145.987,0.2952818
4150.931,0.29675189
4155.887,0.29827493
4160.854,0.29978477
4165.834,0.30127399
4170.826,0.30279218
4175.829,0.30431464
4180.844,0.30579557
4185.872,0.30765429
4190.911,0.31045337
4195.963,0.31489094
4201.026,0.32261174
4206.102,0.33483601
4211.19,0.3509693
4216.291,0.36911501
4221.404,0.38724923
4226.529,0.40377741
4231.666,0.4166695
4236.816,0.42415215
4241.979,0.4241593
4247.154,0.41466703
4252.341,0.3935659
4257.542,0.37729489
4262.754,0.3833117
4267.98,0.4016613
4273.219,0.41057177
4278.47,0.41171456
4283.734,0.41170851
4289.011,0.41219758
4294.301,0.41093647
4299.604,0.40746034
4304.92,0.40486423
4310.25,0.40133168
4315.592,0.39516972
4320.948,0.38933076
4326.317,0.38544562
4331.699,0.38197887
4337.095,0.37871638
4342.504,0.37646907
4347.926,0.37522238
4353.362,0.37473576
4358.811,0.37476344
4364.275,0.37514567
4369.751,0.37587644
4375.242,0.37675552
4380.746,0.37807169
4386.264,0.38029226
4391.796,0.38285849
4397.342,0.38521866
4402.902,0.38735284
4408.476,0.38943517
4414.064,0.3916526
4419.666,0.39378512
4425.282,0.39566371
4430.913,0.39750589
4436.558,0.39939963
4442.217,0.401281
4447.891,0.40304156
4453.579,0.40477486
4459.281,0.40665058
4464.998,0.40836012
4470.73,0.40994955
4476.477,0.41172721
4482.238,0.41319742
4488.014,0.41442892
4493.805,0.41613473
4499.611,0.41798464
4505.431,0.41941041
4511.267,0.42079826
4517.118,0.42252079
4522.984,0.42403849
4528.865,0.42563681
4534.762,0.42781113
4540.674,0.42961784
4546.601,0.43081173
4552.543,0.43227611
4558.502,0.43411615
4564.475,0.43580215
4570.465,0.43768714
4576.47,0.43977619
4582.491,0.44152738
4588.527,0.44324084
4594.58,0.44483896
4600.648,0.44629442
4606.732,0.44784593
4612.833,0.44955904
4618.949,0.45149066
4625.082,0.45348087
4631.231,0.45544889
4637.397,0.45725554
4643.578,0.45882653
4649.777,0.46049533
4655.991,0.46254425
4662.223,0.46474196
4668.471,0.46674193
4674.735,0.46865904
4681.017,0.47089881
4687.315,0.47303917
4693.63,0.47486365
4699.962,0.47710956
4706.312,0.47923477
4712.678,0.48093563
4719.062,0.48283639
4725.463,0.484801
4731.881,0.48665057
4738.316,0.48844691
4744.769,0.49026588
4751.24,0.49239568
4757.728,0.49464365
4764.234,0.49676094
4770.758,0.4992462
4777.299,0.5019847
4783.859,0.50429057
4790.436,0.50603688
4797.032,0.50740094
4803.645,0.50855382
4810.277,0.50999559
4816.927,0.5119138
4823.596,0.51387284
4830.283,0.51578165
4836.988,0.51843874
4843.712,0.52090915
4850.455,0.52193174
4857.216,0.52306969
4863.996,0.52493642
4870.795,0.52681381
4877.613,0.52863944
4884.451,0.53051487
4891.307,0.53291213
4898.182,0.53539773
4905.077,0.53670822
4911.991,0.53759235
4918.925,0.53906512
4925.878,0.540821
4932.851,0.54268899
4939.844,0.54446226
4946.856,0.54688139
4953.888,0.55062621
4960.941,0.55236624
4968.013,0.55185763
4975.105,0.5528471
4982.218,0.5546735
4989.351,0.55618693
4996.504,0.55806163
5003.678,0.55972456
5010.872,0.56293196
5018.087,0.56837581
5025.323,0.56989598
5032.58,0.56786566
5039.857,0.56764585
5047.156,0.5689753
5054.475,0.57054641
5061.816,0.57227635
5069.179,0.57426247
5076.562,0.57824027
5083.967,0.58195578
5091.394,0.5815637
5098.842,0.58118372
5106.312,0.58292318
5113.804,0.584674
5121.318,0.58582348
5128.854,0.5871528
5136.412,0.59156347
5143.992,0.59881703
5151.595,0.59926005
5159.22,0.59434892
5166.868,0.59392898
5174.538,0.59573404
5182.231,0.59659128
5189.947,0.60002114
5197.686,0.60640557
5205.448,0.61189526
5213.233,0.61404074
5221.041,0.60968449
5228.873,0.60800045
5236.728,0.61172389
5244.607,0.61166222
5252.51,0.6106757
5260.436,0.61177104
5268.386,0.61502787
5276.36,0.61863126
5284.358,0.62278537
5292.381,0.62640873
5300.428,0.62383599
5308.499,0.62141286
5316.595,0.62262645
5324.715,0.62406584
5332.86,0.62575989
5341.031,0.63624243
5349.226,0.65105217
5357.446,0.646479
5365.692,0.6352335
5373.962,0.63424705
5382.259,0.63551784
5390.581,0.63596082
5398.928,0.63828177
5407.302,0.64646619
5415.701,0.6637008
5424.127,0.67053283
5432.579,0.65876867
5441.057,0.65499504
5449.561,0.66185971
5458.092,0.67698961
5466.65,0.69447666
5475.234,0.6982702
5483.846,0.69618063
5492.484,0.6955362
5501.15,0.70450124
5509.843,0.72173158
5518.564,0.74663225
5527.312,0.77339173
5536.087,0.80528395
5544.891,0.87626662
5553.723,0.94071943
5562.582,0.86936826
5571.47,0.64237145
5580.387,0.48696499
5589.332,0.45635315
5598.305,0.46504926
5607.307,0.48541735
5616.339,0.50531889
5625.399,0.52304199
5634.489,0.54247415
5643.607,0.5571068
5652.756,0.56119943
5661.934,0.56316657
5671.142,0.57106897
5680.379,0.57982487
5689.647,0.58239261
5698.945,0.58582736
5708.274,0.59778366
5717.633,0.60612232
5727.022,0.60544717
5736.443,0.60740925
5745.894,0.61025297
5755.377,0.61790365
5764.89,0.6293745
5774.436,0.62436457
5784.012,0.6137941
5793.621,0.61091886
5803.262,0.61606806
5812.934,0.63453215
5822.639,0.64897399
5832.376,0.63677727
5842.146,0.62540256
5851.948,0.63206293
5861.783,0.64464955
5871.652,0.65882571
5881.553,0.67123621
5891.488,0.66442636
5901.457,0.64679216
5911.459,0.64092429
5921.495,0.65312785
5931.565,0.67421442
5941.67,0.67053903
5951.809,0.65511966
5961.982,0.65881332
5972.19,0.66782478
5982.433,0.67269035
5992.711,0.66664349
6003.025,0.66019345
6013.374,0.66161383
6023.759,0.65783544
6034.179,0.67402305
6044.636,0.70104531
6055.129,0.69586647
6065.658,0.69227629
6076.224,0.68414142
6086.826,0.66829279
6097.466,0.67822539
6108.143,0.69714704
6118.857,0.68735888
6129.609,0.67554949
6140.398,0.68176372
6151.226,0.68966167
6162.091,0.68957399
6172.996,0.69379762
6183.938,0.69881026
6194.92,0.69093917
6205.94,0.68859707
6217.0,0.69156438
6228.099,0.69197765
6239.237,0.69304436
6250.416,0.69440943
6261.635,0.69687935
6272.893,0.69852556
6284.193,0.69917748
6295.533,0.70031337
6306.914,0.70173655
6318.336,0.70493892
6329.799,0.71773297
6341.304,0.72683692
6352.851,0.723468
6364.44,0.72784045
6376.071,0.72850516
6387.745,0.7272256
6399.461,0.75037089
6411.221,0.7745468
6423.023,0.75787787
6434.869,0.74035508
6446.759,0.73732839
6458.693,0.74241403
6470.671,0.76220474
6482.693,0.78308033
6494.76,0.77276407
6506.872,0.75869291
6519.029,0.75724215
6531.231,0.75532642
6543.48,0.76187514
6555.774,0.77549452
6568.114,0.7839457
6580.501,0.78226809
6592.934,0.77440446
6605.415,0.77104018
6617.943,0.78670243
6630.518,0.80007637
6643.141,0.77801709
6655.812,0.76603644
6668.532,0.77455209
6681.3,0.77262261
6694.117,0.77230879
6706.983,0.78182265
6719.899,0.77584234
6732.864,0.76443703
6745.879,0.76363961
6758.945,0.77097305
6772.062,0.78602471
6785.229,0.78998158
6798.448,0.77611408
6811.718,0.77331723
6825.039,0.77552558
6838.413,0.78101566
6851.84,0.79876828
6865.319,0.79372419
6878.851,0.77688798
6892.437,0.77581588
6906.076,0.77561572
6919.769,0.77065692
6933.517,0.77343229
6947.319,0.78595867
6961.176,0.78798126
6975.089,0.78197575
6989.057,0.78146779
7003.081,0.78179778
7017.161,0.78542801
7031.298,0.79526214
7045.492,0.79710016
7059.743,0.78747867
7074.052,0.78305074
7088.419,0.78477385
7102.845,0.78831178
7117.329,0.79103213
7131.872,0.79547541
7146.475,0.8032161
7161.137,0.80397932
7175.86,0.79887211
7190.643,0.80029689
7205.487,0.80229634
7220.393,0.79915398
7235.36,0.79932235
7250.39,0.80408351
7265.481,0.80897481
7280.636,0.80851061
7295.854,0.80620068
7311.135,0.80898734
7326.481,0.81461205
7341.891,0.81393654
7357.366,0.81008838
7372.906,0.8099872
7388.512,0.81082026
7404.184,0.81153123
7419.922,0.81224625
7435.728,0.81572116
7451.601,0.82176161
7467.541,0.82229343
7483.55,0.8187711
7499.628,0.81799203
7515.774,0.81890602
7531.99,0.81985266
7548.277,0.82162171
7564.633,0.8243608
7581.061,0.8262255
7597.56,0.82677917
7614.131,0.82691461
7630.774,0.82710285
7647.491,0.82773847
7664.28,0.82842927
7681.143,0.82922296
7698.08,0.83019959
7715.093,0.83103665
7732.18,0.83202231
7749.343,0.83305118
7766.583,0.83349314
7783.899,0.83379842
7801.292,0.83431875
7818.764,0.83487719
7836.313,0.8358754
7853.942,0.83717223
7871.649,0.83803751
7889.437,0.83881817
7907.305,0.84011193
7925.254,0.8413268
7943.285,0.84192278
7961.398,0.84239789
7979.594,0.84309395
7997.872,0.84401367
8016.235,0.84505496
8034.682,0.84594088
8053.214,0.84675839
8071.832,0.84755724
8090.535,0.84831069
8109.326,0.84904755
8128.204,0.84976848
8147.169,0.85042631
8166.224,0.85085538
8185.368,0.85121601
8204.601,0.85160401
8223.925,0.85194703
8243.34,0.85220099
8262.847,0.85241825
8282.446,0.85273482
8302.139,0.85315962
8321.925,0.85369134
8341.805,0.85422037
8361.781,0.85478303
8381.852,0.8554723
8402.02,0.85621937
8422.285,0.85685233
8442.648,0.85721399
8463.109,0.85743933
8483.67,0.85774106
8504.331,0.8580568
8525.092,0.85838399
8545.955,0.85882862
8566.921,0.85929691
8587.989,0.85978424
8609.161,0.86025191
8630.437,0.86077668
8651.819,0.86136887
8673.307,0.86180163
8694.902,0.86223204
8716.604,0.86264996
8738.415,0.86293995
8760.335,0.86326674
8782.365,0.86368062
8804.507,0.86411077
8826.76,0.86450455
8849.125,0.86489791
8871.604,0.86545887
8894.198,0.86610744
8916.907,0.86650108
8939.732,0.86670249
8962.673,0.86696852
8985.733,0.8673345
9008.912,0.86780053
9032.21,0.86826983
9055.629,0.86852823
9079.17,0.86857626
9102.833,0.86871625
9126.62,0.86900266
9150.531,0.8690848
9174.568,0.86906581
9198.731,0.86909068
9223.022,0.86909437
9247.441,0.86928771
9271.99,0.86957023
9296.669,0.86973761
9321.48,0.86985359
9346.423,0.87004124
9371.5,0.87037745
9396.712,0.87067836
9422.06,0.87086171
9447.545,0.87128954
9473.167,0.87196069
9498.929,0.87243867
9524.832,0.87285426
9550.876,0.87346178
9577.062,0.87404656
9603.393,0.87459768
9629.868,0.87517297
9656.49,0.87569047
9683.259,0.87618633
9710.176,0.87665397
9737.244,0.87726496
9764.463,0.87808744
9791.834,0.8788409
9819.359,0.87947571
9847.039,0.88008317
9874.875,0.88062797
9902.869,0.88112279
9931.022,0.88157501
9959.336,0.88198448
9987.811,0.88246393
10016.449,0.88292809
10045.252,0.88327446
10074.221,0.88369587
10103.357,0.88415552
10132.662,0.88461167
10162.137,0.88513951
10191.784,0.88561673
10221.604,0.88602205
10251.6,0.88638177
10281.771,0.88673121
10312.121,0.88711479
10342.65,0.88751494
10373.36,0.8879452
10404.253,0.88838438
10435.331,0.88883112
10466.594,0.88928857
10498.045,0.8896245
10529.686,0.88988469
10561.517,0.8902414
10593.542,0.89050021
10625.761,0.89060164
10658.176,0.89080641
10690.79,0.89101136
10723.604,0.89092157
10756.619,0.89061457
10789.839,0.89047888
10823.264,0.89046209
10856.896,0.89018552
10890.738,0.8898262
10924.791,0.88965987
10959.058,0.88951393
10993.541,0.88917436
11028.24,0.8887758
11063.16,0.88848887
11098.301,0.88820992
11133.665,0.88793731
11169.256,0.88779037
11205.075,0.88780448
11241.124,0.88792135
11277.405,0.88809782
11313.921,0.8883019
11350.675,0.88852944
11387.667,0.88892464
11424.901,0.88927111
11462.38,0.889423
11500.105,0.88971985
11538.079,0.89017163
11576.304,0.89045837
11614.783,0.89054533
11653.518,0.89066001
11692.513,0.89089422
11731.769,0.89109948
11771.29,0.89120669
11811.077,0.89138727
11851.134,0.89167599
11891.464,0.89176434
11932.068,0.89172388
11972.951,0.89189042
12014.114,0.8920125
12055.562,0.89193489
12097.296,0.89164847
12139.32,0.89106479
12181.636,0.8905607
12224.249,0.89055992
12267.16,0.89098038
12310.373,0.89149905
12353.892,0.89182473
12397.719,0.89181965
12441.859,0.89166042
12486.313,0.8915731
12531.086,0.8915934
12576.18,0.89156403
12621.601,0.89139372
12667.35,0.89141504
12713.432,0.89153472
12759.85,0.89138423
12806.608,0.8914694
12853.71,0.89194367
12901.159,0.89220661
12948.96,0.89198594
12997.116,0.89157426
13045.631,0.89126519
13094.51,0.89120128
13143.756,0.89109955
13193.373,0.89065674
13243.366,0.89035406
13293.74,0.89032486
13344.497,0.89033594
13395.644,0.89035688
13447.183,0.89042354
13499.121,0.89037963
13551.461,0.89009394
13604.208,0.88992639
13657.367,0.89004144
13710.943,0.89016164
13764.941,0.89005938
13819.365,0.88959542
13874.221,0.88868327
13929.515,0.88780998
13985.25,0.88702545
14041.433,0.88616684
14098.068,0.88526619
14155.163,0.88369714
14212.721,0.88185431
14270.749,0.88008131
14329.252,0.87777051
14388.237,0.87504217
14447.709,0.87238738
14507.674,0.86924402
14568.139,0.8648662
14629.109,0.85980618
14690.592,0.85384682
14752.594,0.84636766
14815.121,0.83786974
14878.179,0.830962
14941.777,0.82298168
15005.92,0.80815799
15070.616,0.78995863
15135.871,0.76974145
15201.695,0.74637417
15268.092,0.71709631
15335.072,0.68134569
15402.642,0.64514035
15470.81,0.60644572
15539.583,0.56035477
15608.97,0.51397436
15678.979,0.47088364
15749.619,0.43076567
15820.897,0.39807967
15892.824,0.36754813
15965.407,0.33643126
