Database of Origin,University of Winnipeg Spectrophotometer Facility
Sample Description,16.11. Meteorites - HEDs 16.11.3. NASA samples (4) Bruker Vertex 70 FTIR spectrometer
Other Information,MIR Glowbar KBr Beam Splitter MCT cryo cooled Dectect.
Date Added,2018-07-23 23:49:06.013703

Data ID,FTIR_MET2_6_44      
Sample ID,NWA 1943
Mineral Name,Howardite
Grain Size,45-90 um
Viewing Geometry,i30/ e0
Resolution,7.71cm-1

Wavelength
1672.316177,0.18305
1674.476792,0.18193
1676.642997,0.1808
1678.814814,0.18034
1680.992268,0.17986
1683.175374,0.17944
1685.364158,0.17885
1687.558643,0.17751
1689.758849,0.17622
1691.9648,0.17543
1694.176519,0.17492
1696.394027,0.17462
1698.61735,0.17408
1700.846507,0.1732
1703.081521,0.1724
1705.322418,0.1714
1707.569219,0.17042
1709.821949,0.17009
1712.08063,0.16969
1714.345286,0.16853
1716.615945,0.16705
1718.892624,0.16591
1721.175349,0.16557
1723.464146,0.16554
1725.759038,0.1646
1728.060049,0.16317
1730.367205,0.16275
1732.68053,0.16276
1735.000051,0.16243
1737.325788,0.16161
1739.657769,0.16036
1741.996018,0.15949
1744.340562,0.15875
1746.691425,0.15788
1749.048633,0.15699
1751.412211,0.15618
1753.78219,0.15562
1756.158588,0.15515
1758.541435,0.15503
1760.930758,0.15487
1763.326581,0.15353
1765.728933,0.15182
1768.13784,0.15083
1770.553328,0.15054
1772.975429,0.15044
1775.404162,0.14998
1777.839558,0.14982
1780.281645,0.14965
1782.73045,0.14887
1785.186001,0.1482
1787.648326,0.14766
1790.117454,0.14636
1792.593414,0.14457
1795.07623,0.14413
1797.565933,0.14475
1800.062552,0.14446
1802.566116,0.14338
1805.076653,0.14227
1807.594193,0.14133
1810.118766,0.14074
1812.650403,0.14037
1815.189129,0.1402
1817.734976,0.14025
1820.287974,0.13965
1822.848154,0.13854
1825.415545,0.13766
1827.990179,0.13715
1830.572085,0.1371
1833.161299,0.13643
1835.757844,0.13509
1838.361756,0.1345
1840.973065,0.13446
1843.591803,0.13448
1846.218001,0.13454
1848.851693,0.13433
1851.492909,0.13404
1854.141686,0.13359
1856.798049,0.13284
1859.462034,0.13244
1862.133675,0.13213
1864.813003,0.13134
1867.500053,0.13077
1870.194858,0.13027
1872.897451,0.12969
1875.60787,0.12968
1878.326142,0.12987
1881.052305,0.12957
1883.786392,0.12875
1886.528439,0.12826
1889.27848,0.12828
1892.03655,0.12768
1894.802685,0.12658
1897.576923,0.12565
1900.359294,0.12536
1903.149835,0.12564
1905.948585,0.12601
1908.755578,0.12619
1911.570851,0.12591
1914.394441,0.12549
1917.226385,0.12504
1920.066724,0.12465
1922.915487,0.12462
1925.772716,0.12453
1928.638449,0.12418
1931.512723,0.12372
1934.395578,0.12343
1937.28705,0.1231
1940.18718,0.12278
1943.09601,0.1229
1946.013571,0.12288
1948.939907,0.12269
1951.875057,0.12294
1954.819061,0.12326
1957.771959,0.12301
1960.733792,0.12226
1963.7046,0.12192
1966.684429,0.12208
1969.67331,0.12191
1972.671291,0.12156
1975.678411,0.12149
1978.694713,0.12148
1981.72024,0.12135
1984.755033,0.12134
1987.799135,0.12141
1990.852594,0.12153
1993.915443,0.12203
1996.987732,0.12262
2000.069502,0.12272
2003.160799,0.1224
2006.261667,0.12213
2009.37215,0.12216
2012.492292,0.12225
2015.622144,0.12229
2018.761742,0.12242
2021.911136,0.12248
2025.070371,0.12248
2028.239495,0.12262
2031.418553,0.12258
2034.607593,0.12254
2037.806661,0.12296
2041.015809,0.1234
2044.235076,0.12361
2047.464515,0.12389
2050.704173,0.12413
2053.9541,0.12427
2057.214344,0.12467
2060.484955,0.12529
2063.765981,0.12563
2067.057478,0.12574
2070.359486,0.12611
2073.672061,0.12672
2076.995253,0.12702
2080.329113,0.12697
2083.673693,0.12744
2087.029044,0.12837
2090.39522,0.12877
2093.772276,0.1288
2097.160256,0.12893
2100.559219,0.12898
2103.969217,0.12929
2107.390304,0.1301
2110.822536,0.13089
2114.265965,0.1315
2117.720647,0.13219
2121.186643,0.13293
2124.663997,0.13375
2128.152772,0.13436
2131.653022,0.13457
2135.164806,0.13501
2138.68818,0.1358
2142.223201,0.1365
2145.769927,0.13706
2149.328422,0.13769
2152.898735,0.13858
2156.480928,0.13947
2160.075063,0.13988
2163.681197,0.14008
2167.299393,0.14074
2170.929709,0.1416
2174.572208,0.14227
2178.226956,0.14293
2181.894004,0.14375
2185.57342,0.1448
2189.265266,0.14569
2192.969606,0.14638
2196.686503,0.1472
2200.416021,0.14796
2204.158225,0.14853
2207.913183,0.14902
2211.680953,0.14947
2215.461603,0.15023
2219.255201,0.15106
2223.061813,0.15195
2226.881507,0.15316
2230.714349,0.15423
2234.560407,0.15522
2238.419756,0.15621
2242.292454,0.15708
2246.178575,0.15795
2250.07819,0.15889
2253.991369,0.15996
2257.918183,0.1608
2261.858702,0.16109
2265.813,0.16146
2269.781154,0.16253
2273.763225,0.16398
2277.759293,0.16511
2281.769432,0.166
2285.793716,0.16698
2289.832221,0.16807
2293.88502,0.16926
2297.952192,0.17028
2302.033816,0.17094
2306.129961,0.17148
2310.240709,0.17218
2314.366139,0.17307
2318.506328,0.17392
2322.661356,0.17504
2326.831304,0.17663
2331.016252,0.17775
2335.216286,0.17834
2339.431477,0.17925
2343.661913,0.18021
2347.907677,0.18104
2352.168852,0.1822
2356.445521,0.1835
2360.737771,0.18445
2365.045686,0.1854
2369.369358,0.18685
2373.708861,0.18834
2378.06429,0.18942
2382.435731,0.19004
2386.823273,0.1904
2391.227005,0.19107
2395.647017,0.19211
2400.0834,0.19317
2404.53625,0.1942
2409.005647,0.19544
2413.491691,0.19666
2417.994473,0.19757
2422.514088,0.19845
2427.050631,0.19929
2431.604196,0.20002
2436.17488,0.2011
2440.762785,0.20228
2445.367997,0.203
2449.99062,0.20395
2454.630753,0.20534
2459.288496,0.20629
2463.963948,0.20698
2468.657212,0.20795
2473.368389,0.20902
2478.097588,0.21004
2482.844901,0.21103
2487.610438,0.21202
2492.394303,0.21299
2497.196603,0.21392
2502.017445,0.21467
2506.856937,0.21537
2511.715186,0.21624
2516.592308,0.21715
2521.488402,0.21791
2526.403583,0.21834
2531.337964,0.21868
2536.291658,0.21927
2541.264778,0.22012
2546.257439,0.2211
2551.269756,0.22201
2556.301852,0.2223
2561.353831,0.22241
2566.425818,0.2234
2571.517932,0.22417
2576.630293,0.22438
2581.763021,0.22474
2586.91624,0.22515
2592.090072,0.22566
2597.284647,0.22645
2602.500077,0.22695
2607.736495,0.22752
2612.994027,0.22806
2618.272802,0.22866
2623.572949,0.22945
2628.894597,0.23003
2634.237878,0.23117
2639.60293,0.232
2644.989874,0.23224
2650.398851,0.23266
2655.829995,0.23294
2661.283444,0.23241
2666.759335,0.23167
2672.257807,0.23243
2677.779,0.23374
2683.323062,0.23411
2688.890121,0.23382
2694.480328,0.23383
2700.093828,0.23423
2705.730766,0.23409
2711.39129,0.23326
2717.075548,0.2318
2722.783689,0.23015
2728.515871,0.2291
2734.272233,0.22734
2740.052934,0.22472
2745.85813,0.22275
2751.687977,0.22039
2757.542631,0.21708
2763.422252,0.21432
2769.327,0.21264
2775.257043,0.21111
2781.212529,0.2089
2787.19363,0.20677
2793.200512,0.20527
2799.233341,0.20372
2805.292287,0.20263
2811.377519,0.20231
2817.489208,0.20159
2823.627536,0.20064
2829.79266,0.1998
2835.984766,0.19891
2842.20403,0.19827
2848.450631,0.19783
2854.72475,0.19709
2861.02657,0.19584
2867.356274,0.19474
2873.714055,0.19463
2880.100086,0.19482
2886.514561,0.1947
2892.957673,0.19448
2899.429613,0.19401
2905.930575,0.19376
2912.460755,0.19383
2919.020351,0.19351
2925.609569,0.19292
2932.228594,0.19246
2938.877637,0.19215
2945.556904,0.19196
2952.266599,0.19178
2959.006933,0.19177
2965.778115,0.19208
2972.580357,0.19255
2979.413883,0.19307
2986.278891,0.19362
2993.175608,0.19399
3000.104254,0.19415
3007.065051,0.19447
3014.058225,0.19495
3021.084,0.19542
3028.142607,0.19585
3035.234283,0.19629
3042.359245,0.19643
3049.517737,0.19635
3056.709994,0.19649
3063.936258,0.19663
3071.196769,0.19681
3078.491772,0.19714
3085.821513,0.19751
3093.186251,0.19798
3100.586217,0.19826
3108.021674,0.19824
3115.492879,0.19885
3123.000089,0.20028
3130.543567,0.20168
3138.123574,0.2023
3145.740377,0.20227
3153.394256,0.20262
3161.08546,0.20326
3168.814274,0.20373
3176.580974,0.20434
3184.38584,0.20506
3192.229154,0.20567
3200.1112,0.20621
3208.032266,0.20693
3215.992653,0.20758
3223.992633,0.20783
3232.032514,0.2082
3240.112594,0.20887
3248.233176,0.20934
3256.394564,0.20961
3264.597068,0.20994
3272.840999,0.21038
3281.126681,0.21087
3289.454413,0.21152
3297.824524,0.21224
3306.237341,0.21269
3314.693189,0.21279
3323.192401,0.21272
3331.735311,0.21264
3340.322256,0.21276
3348.95359,0.21282
3357.629634,0.21183
3366.350748,0.21003
3375.117285,0.20926
3383.929601,0.20971
3392.788054,0.20945
3401.693008,0.20773
3410.64483,0.20578
3419.643903,0.20555
3428.690579,0.20772
3437.785247,0.21054
3446.928291,0.21239
3456.120099,0.21324
3465.36106,0.21354
3474.651571,0.21347
3483.99203,0.2129
3493.382855,0.2121
3502.824429,0.21224
3512.317177,0.21374
3521.861515,0.21536
3531.457866,0.21626
3541.106657,0.21666
3550.808317,0.21689
3560.563284,0.21713
3570.372009,0.21739
3580.234914,0.21761
3590.15246,0.2176
3600.125104,0.2174
3610.153306,0.2173
3620.237532,0.21739
3630.378252,0.21738
3640.575942,0.21715
3650.831097,0.21718
3661.144177,0.21739
3671.515689,0.21724
3681.946129,0.21692
3692.436003,0.21676
3702.985818,0.21674
3713.596091,0.21669
3724.267342,0.21651
3735.000113,0.21623
3745.79491,0.21613
3756.652285,0.2163
3767.572784,0.21625
3778.556959,0.21591
3789.605369,0.21564
3800.71858,0.21541
3811.897162,0.2152
3823.141709,0.215
3834.452778,0.21462
3845.830974,0.21421
3857.276898,0.21399
3868.791155,0.21384
3880.37436,0.21353
3892.027134,0.21316
3903.750106,0.21291
3915.543926,0.21275
3927.409209,0.21248
3939.346621,0.21192
3951.356822,0.21159
3963.44048,0.21168
3975.598271,0.21147
3987.830879,0.21081
4000.138997,0.21024
4012.523342,0.20972
4024.984593,0.20902
4037.523484,0.20853
4050.140742,0.20827
4062.837106,0.20812
4075.613322,0.2078
4088.470144,0.20698
4101.408338,0.20617
4114.428697,0.20564
4127.531971,0.20524
4140.718972,0.20496
4153.990505,0.20456
4167.347385,0.20395
4180.790439,0.20326
4194.320503,0.2025
4207.938425,0.20166
4221.64508,0.20071
4235.441304,0.19984
4249.327994,0.19915
4263.306045,0.19793
4277.376359,0.19647
4291.539855,0.19568
4305.79746,0.19545
4320.150116,0.19508
4334.598795,0.19472
4349.144426,0.19458
4363.788008,0.19433
4378.530532,0.19394
4393.373006,0.19377
4408.316449,0.1936
4423.361896,0.19316
4438.510393,0.19248
4453.763023,0.19175
4469.120824,0.19135
4484.584908,0.19089
4500.15638,0.19008
4515.836365,0.18911
4531.626,0.1879
4547.52644,0.18644
4563.538854,0.18475
4579.664452,0.18261
4595.904394,0.18037
4612.259923,0.17803
4628.732277,0.1753
4645.322713,0.17239
4662.032504,0.16956
4678.862943,0.16657
4695.815342,0.16313
4712.891054,0.15928
4730.091384,0.15525
4747.417723,0.15128
4764.871462,0.14787
4782.45401,0.14496
4800.1668,0.14204
4818.011283,0.13898
4835.988934,0.13583
4854.101273,0.13281
4872.349771,0.12997
4890.735994,0.12696
4909.261506,0.12401
4927.927896,0.1213
4946.736778,0.11828
4965.68979,0.11491
4984.788594,0.11206
5004.034903,0.10964
5023.430384,0.10719
5042.976803,0.10488
5062.675928,0.1029
5082.529556,0.1012
5102.539511,0.09925
5122.707649,0.09691
5143.03585,0.09467
5163.526056,0.0928
5184.180157,0.09115
5205.000154,0.08978
5225.988055,0.08882
5247.145898,0.08814
5268.475756,0.08785
5289.979735,0.0885
5311.659976,0.09014
5333.518684,0.09212
5355.558014,0.09393
5377.780242,0.09523
5400.187657,0.09607
5422.78258,0.09697
5445.567377,0.09844
5468.544451,0.10049
5491.716246,0.10224
5515.085278,0.10292
5538.654014,0.10236
5562.425058,0.10059
5586.401024,0.09816
5610.584574,0.09602
5634.978416,0.09437
5659.585305,0.09332
5684.408043,0.09259
5709.449517,0.09168
5734.712564,0.09036
5760.200171,0.08868
5785.915346,0.08688
5811.861151,0.08511
5838.040701,0.08317
5864.457171,0.08079
5891.11379,0.07698
5918.013883,0.07258
5945.160732,0.06839
5972.557781,0.06541
6000.208507,0.06401
6028.116449,0.06326
6056.285213,0.06225
6084.718472,0.06104
6113.41997,0.05999
6142.393557,0.05892
6171.643046,0.05793
6201.172433,0.05755
6230.985758,0.05792
6261.087133,0.05861
6291.480755,0.05939
6322.1709,0.06056
6353.161929,0.06226
6384.458328,0.06362
6416.064553,0.06407
6447.985267,0.0643
6480.225188,0.06444
6512.789128,0.06399
6545.681997,0.06314
6578.908804,0.06262
6612.47466,0.06285
6646.384825,0.06354
6680.644535,0.06438
6715.259268,0.06512
6750.234571,0.06539
6785.576107,0.0651
6821.28966,0.06442
6857.381134,0.0636
6893.856559,0.06291
6930.722144,0.06239
6967.984085,0.06175
7005.648858,0.06075
7043.72303,0.05937
7082.213314,0.05799
7121.126567,0.0567
7160.469802,0.05527
7200.250183,0.05378
7240.47509,0.05209
7281.15191,0.05016
7322.288355,0.04811
7363.892259,0.04595
7405.971636,0.04375
7448.534685,0.04145
7491.589791,0.03917
7535.145539,0.03713
7579.210768,0.03505
7623.794353,0.03292
7668.905555,0.03082
7714.553795,0.02867
7760.74872,0.02649
7807.500211,0.02434
7854.818386,0.02236
7902.713612,0.02046
7951.196573,0.01854
8000.278026,0.01696
8049.969186,0.0158
8100.281485,0.01491
8151.226643,0.01437
8202.816677,0.01414
8255.063908,0.01417
8307.980976,0.01473
8361.580914,0.01554
8415.876885,0.01621
8470.882607,0.01702
8526.612089,0.01804
8583.07971,0.01876
8640.300232,0.01883
8698.288814,0.01988
8757.061026,0.02287
8816.632938,0.02667
8877.020825,0.03133
8938.241648,0.03749
9000.312761,0.04421
9063.252001,0.04928
9127.077709,0.05143
9191.808745,0.05113
9257.464511,0.04979
9324.065051,0.04846
9391.630729,0.04755
9460.182767,0.04758
9529.742923,0.04875
9600.3336,0.04987
9671.977869,0.04981
9744.699495,0.04889
9818.522964,0.04739
9893.473606,0.04584
9969.577237,0.0451
10046.86077,0.04499
10125.35186,0.04495
10205.07902,0.04495
10286.0717,0.04595
10368.36026,0.04844
10451.97605,0.05053
10536.95157,0.0511
10623.32001,0.05141
10711.11603,0.05129
10800.37531,0.04946
10891.13475,0.04671
10983.43249,0.04585
11077.30797,0.04846
11172.80199,0.05232
11269.9569,0.05351
11368.81615,0.05091
11469.42513,0.0467
11571.83069,0.04282
11676.0814,0.03944
11782.22758,0.03682
11890.32139,0.03451
12000.41694,0.0321
12112.5705,0.0304
12226.84001,0.0293
12343.28609,0.02819
12461.97152,0.02712
12582.96151,0.02585
12706.32386,0.02421
12832.12902,0.02318
12960.45029,0.02323
13091.36408,0.02268
13224.94941,0.02113
13361.28907,0.0199
13500.46914,0.01935
13642.57932,0.01981
13787.71312,0.02076
13935.96807,0.02056
14087.44596,0.01928
14242.25324,0.01828
14400.50047,0.01797
14562.30382,0.01779
14727.78452,0.01705
14897.06937,0.01566
15070.29108,0.01447
15247.58859,0.01586
15429.10747,0.01988
15615.00054,0.02321
15805.42735,0.0238
16000.55605,0.02352
16200.56297,0.02464
16405.63335,0.02793
16615.96195,0.03314
16831.75363,0.03887
17053.22403,0.04325
17280.60061,0.04547
17514.12221,0.0475
17754.04165,0.0494
18000.62552,0.05001
18254.15542,0.05114
18514.92902,0.05403
18783.26128,0.05868
19059.48566,0.06439
19343.95592,0.06904
19637.04612,0.07123
19939.15447,0.06993
20250.70371,0.06598
20572.1434,0.06547
20903.95211,0.06792
21246.63979,0.06377
21600.75039,0.05522
21966.86522,0.05034
22345.60422,0.04928
22737.6323,0.04883
23143.66139,0.0477
23564.45516,0.04476
24000.83388,0.04005
24453.67973,0.04427
24923.94272,0.05844
25412.64804,0.07965
