Database of Origin,University of Winnipeg Spectrophotometer Facility
Sample Description,16.11. Meteorites - HEDs 16.11.3. NASA samples (4) Bruker Vertex 70 FTIR spectrometer
Other Information,MIR Glowbar KBr Beam Splitter MCT cryo cooled Dectect.
Date Added,2018-07-23 23:49:06.445648

Data ID,FTIR_MET2_6_60      
Sample ID,Tatahouine
Mineral Name,Diogenite
Grain Size,250-500 um
Viewing Geometry,i30/ e0
Resolution,7.71cm-1

Wavelength
1672.316177,0.06343
1674.476792,0.06249
1676.642997,0.06164
1678.814814,0.06127
1680.992268,0.06126
1683.175374,0.0614
1685.364158,0.06084
1687.558643,0.05969
1689.758849,0.05881
1691.9648,0.05873
1694.176519,0.05877
1696.394027,0.05812
1698.61735,0.05733
1700.846507,0.05622
1703.081521,0.05497
1705.322418,0.05473
1707.569219,0.05465
1709.821949,0.05412
1712.08063,0.0534
1714.345286,0.05276
1716.615945,0.05208
1718.892624,0.05135
1721.175349,0.05165
1723.464146,0.05193
1725.759038,0.0513
1728.060049,0.05084
1730.367205,0.05037
1732.68053,0.04966
1735.000051,0.04884
1737.325788,0.04769
1739.657769,0.0469
1741.996018,0.04661
1744.340562,0.04611
1746.691425,0.04593
1749.048633,0.04632
1751.412211,0.04653
1753.78219,0.04621
1756.158588,0.04561
1758.541435,0.04532
1760.930758,0.04506
1763.326581,0.0445
1765.728933,0.04426
1768.13784,0.04448
1770.553328,0.04484
1772.975429,0.04465
1775.404162,0.0442
1777.839558,0.04399
1780.281645,0.04329
1782.73045,0.04206
1785.186001,0.04147
1787.648326,0.04164
1790.117454,0.04161
1792.593414,0.04174
1795.07623,0.04249
1797.565933,0.0428
1800.062552,0.0422
1802.566116,0.04148
1805.076653,0.04066
1807.594193,0.0397
1810.118766,0.03942
1812.650403,0.03969
1815.189129,0.03957
1817.734976,0.03924
1820.287974,0.03879
1822.848154,0.0382
1825.415545,0.03843
1827.990179,0.03949
1830.572085,0.03979
1833.161299,0.03915
1835.757844,0.03869
1838.361756,0.03846
1840.973065,0.03842
1843.591803,0.03811
1846.218001,0.03741
1848.851693,0.03713
1851.492909,0.03694
1854.141686,0.03666
1856.798049,0.03684
1859.462034,0.0372
1862.133675,0.03703
1864.813003,0.03647
1867.500053,0.03613
1870.194858,0.0358
1872.897451,0.03571
1875.60787,0.03574
1878.326142,0.03553
1881.052305,0.03522
1883.786392,0.03449
1886.528439,0.0338
1889.27848,0.03405
1892.03655,0.03459
1894.802685,0.03448
1897.576923,0.03428
1900.359294,0.03447
1903.149835,0.03459
1905.948585,0.03466
1908.755578,0.03471
1911.570851,0.0344
1914.394441,0.03419
1917.226385,0.03446
1920.066724,0.03472
1922.915487,0.03445
1925.772716,0.03395
1928.638449,0.03359
1931.512723,0.03336
1934.395578,0.03332
1937.28705,0.0336
1940.18718,0.03434
1943.09601,0.0351
1946.013571,0.03498
1948.939907,0.03454
1951.875057,0.03447
1954.819061,0.03421
1957.771959,0.03409
1960.733792,0.03392
1963.7046,0.03315
1966.684429,0.03267
1969.67331,0.03294
1972.671291,0.03356
1975.678411,0.03396
1978.694713,0.03381
1981.72024,0.03369
1984.755033,0.0338
1987.799135,0.03389
1990.852594,0.03413
1993.915443,0.03468
1996.987732,0.03485
2000.069502,0.03449
2003.160799,0.0346
2006.261667,0.03504
2009.37215,0.03516
2012.492292,0.0352
2015.622144,0.03541
2018.761742,0.03567
2021.911136,0.03581
2025.070371,0.03597
2028.239495,0.03609
2031.418553,0.03599
2034.607593,0.03587
2037.806661,0.03608
2041.015809,0.03631
2044.235076,0.03628
2047.464515,0.03646
2050.704173,0.03703
2053.9541,0.03771
2057.214344,0.03822
2060.484955,0.0385
2063.765981,0.0388
2067.057478,0.03922
2070.359486,0.03952
2073.672061,0.03969
2076.995253,0.04005
2080.329113,0.0404
2083.673693,0.04045
2087.029044,0.0404
2090.39522,0.04052
2093.772276,0.04137
2097.160256,0.04261
2100.559219,0.04319
2103.969217,0.04329
2107.390304,0.04351
2110.822536,0.04392
2114.265965,0.04455
2117.720647,0.04517
2121.186643,0.04556
2124.663997,0.04603
2128.152772,0.04678
2131.653022,0.0476
2135.164806,0.04842
2138.68818,0.04909
2142.223201,0.0494
2145.769927,0.04974
2149.328422,0.05048
2152.898735,0.05133
2156.480928,0.05217
2160.075063,0.05282
2163.681197,0.05326
2167.299393,0.05396
2170.929709,0.05499
2174.572208,0.05601
2178.226956,0.05662
2181.894004,0.05679
2185.57342,0.05741
2189.265266,0.05883
2192.969606,0.06035
2196.686503,0.06136
2200.416021,0.06194
2204.158225,0.06252
2207.913183,0.06314
2211.680953,0.0639
2215.461603,0.06487
2219.255201,0.06578
2223.061813,0.06656
2226.881507,0.06745
2230.714349,0.06847
2234.560407,0.06934
2238.419756,0.07035
2242.292454,0.07178
2246.178575,0.0731
2250.07819,0.07398
2253.991369,0.07469
2257.918183,0.07554
2261.858702,0.07661
2265.813,0.07779
2269.781154,0.07914
2273.763225,0.08018
2277.759293,0.08089
2281.769432,0.08218
2285.793716,0.0837
2289.832221,0.08481
2293.88502,0.08594
2297.952192,0.08703
2302.033816,0.08781
2306.129961,0.08861
2310.240709,0.08966
2314.366139,0.09067
2318.506328,0.0917
2322.661356,0.09313
2326.831304,0.09465
2331.016252,0.09581
2335.216286,0.09661
2339.431477,0.09742
2343.661913,0.09852
2347.907677,0.09967
2352.168852,0.10058
2356.445521,0.10154
2360.737771,0.10286
2365.045686,0.10433
2369.369358,0.10574
2373.708861,0.1071
2378.06429,0.10802
2382.435731,0.10877
2386.823273,0.11008
2391.227005,0.11126
2395.647017,0.11203
2400.0834,0.11297
2404.53625,0.11394
2409.005647,0.11475
2413.491691,0.11568
2417.994473,0.1168
2422.514088,0.11801
2427.050631,0.11892
2431.604196,0.11955
2436.17488,0.12035
2440.762785,0.12141
2445.367997,0.1227
2449.99062,0.12374
2454.630753,0.12454
2459.288496,0.12557
2463.963948,0.12669
2468.657212,0.12752
2473.368389,0.12813
2478.097588,0.1287
2482.844901,0.12929
2487.610438,0.13
2492.394303,0.13071
2497.196603,0.13114
2502.017445,0.13161
2506.856937,0.13237
2511.715186,0.1331
2516.592308,0.13371
2521.488402,0.13439
2526.403583,0.13506
2531.337964,0.13545
2536.291658,0.13579
2541.264778,0.13649
2546.257439,0.13727
2551.269756,0.13777
2556.301852,0.13837
2561.353831,0.13931
2566.425818,0.13996
2571.517932,0.14033
2576.630293,0.14063
2581.763021,0.14092
2586.91624,0.14135
2592.090072,0.14195
2597.284647,0.14247
2602.500077,0.14281
2607.736495,0.14288
2612.994027,0.14281
2618.272802,0.14258
2623.572949,0.14199
2628.894597,0.14164
2634.237878,0.14121
2639.60293,0.14083
2644.989874,0.14108
2650.398851,0.14158
2655.829995,0.1423
2661.283444,0.14373
2666.759335,0.1455
2672.257807,0.14613
2677.779,0.14505
2683.323062,0.1435
2688.890121,0.14284
2694.480328,0.14264
2700.093828,0.14199
2705.730766,0.14165
2711.39129,0.14174
2717.075548,0.142
2722.783689,0.14201
2728.515871,0.14112
2734.272233,0.14073
2740.052934,0.1405
2745.85813,0.13929
2751.687977,0.1385
2757.542631,0.13826
2763.422252,0.13765
2769.327,0.137
2775.257043,0.1366
2781.212529,0.13597
2787.19363,0.1349
2793.200512,0.13399
2799.233341,0.13375
2805.292287,0.13323
2811.377519,0.13233
2817.489208,0.13177
2823.627536,0.13102
2829.79266,0.13064
2835.984766,0.1307
2842.20403,0.1301
2848.450631,0.12897
2854.72475,0.12811
2861.02657,0.12723
2867.356274,0.12642
2873.714055,0.12624
2880.100086,0.12605
2886.514561,0.12562
2892.957673,0.12515
2899.429613,0.12483
2905.930575,0.12454
2912.460755,0.12383
2919.020351,0.12316
2925.609569,0.12289
2932.228594,0.12257
2938.877637,0.12206
2945.556904,0.12152
2952.266599,0.12092
2959.006933,0.12023
2965.778115,0.11966
2972.580357,0.11935
2979.413883,0.11911
2986.278891,0.11873
2993.175608,0.11829
3000.104254,0.11786
3007.065051,0.11733
3014.058225,0.11673
3021.084,0.11632
3028.142607,0.1162
3035.234283,0.11601
3042.359245,0.1154
3049.517737,0.11469
3056.709994,0.11423
3063.936258,0.11388
3071.196769,0.11355
3078.491772,0.11321
3085.821513,0.11281
3093.186251,0.1123
3100.586217,0.11186
3108.021674,0.11147
3115.492879,0.11102
3123.000089,0.11068
3130.543567,0.11049
3138.123574,0.11032
3145.740377,0.11006
3153.394256,0.10971
3161.08546,0.10923
3168.814274,0.10869
3176.580974,0.10826
3184.38584,0.10773
3192.229154,0.10709
3200.1112,0.10668
3208.032266,0.10652
3215.992653,0.10627
3223.992633,0.10598
3232.032514,0.10586
3240.112594,0.10565
3248.233176,0.10518
3256.394564,0.10458
3264.597068,0.10402
3272.840999,0.10356
3281.126681,0.10318
3289.454413,0.10281
3297.824524,0.10254
3306.237341,0.10221
3314.693189,0.10178
3323.192401,0.10168
3331.735311,0.10164
3340.322256,0.10108
3348.95359,0.10022
3357.629634,0.09921
3366.350748,0.09839
3375.117285,0.0981
3383.929601,0.09783
3392.788054,0.09725
3401.693008,0.09652
3410.64483,0.09573
3419.643903,0.09533
3428.690579,0.09549
3437.785247,0.0956
3446.928291,0.09547
3456.120099,0.0952
3465.36106,0.09456
3474.651571,0.09388
3483.99203,0.0935
3493.382855,0.09314
3502.824429,0.09282
3512.317177,0.09272
3521.861515,0.09264
3531.457866,0.09247
3541.106657,0.09238
3550.808317,0.09223
3560.563284,0.09187
3570.372009,0.09145
3580.234914,0.09094
3590.15246,0.09037
3600.125104,0.08984
3610.153306,0.08934
3620.237532,0.08909
3630.378252,0.08884
3640.575942,0.08851
3650.831097,0.08824
3661.144177,0.08774
3671.515689,0.08695
3681.946129,0.0863
3692.436003,0.08605
3702.985818,0.08598
3713.596091,0.0858
3724.267342,0.08539
3735.000113,0.08486
3745.79491,0.08441
3756.652285,0.08408
3767.572784,0.08382
3778.556959,0.08355
3789.605369,0.08315
3800.71858,0.08265
3811.897162,0.08227
3823.141709,0.08206
3834.452778,0.08191
3845.830974,0.08168
3857.276898,0.08115
3868.791155,0.08049
3880.37436,0.08004
3892.027134,0.07973
3903.750106,0.07931
3915.543926,0.07878
3927.409209,0.07824
3939.346621,0.07788
3951.356822,0.07758
3963.44048,0.07699
3975.598271,0.07659
3987.830879,0.07643
4000.138997,0.07611
4012.523342,0.07577
4024.984593,0.07529
4037.523484,0.07464
4050.140742,0.0741
4062.837106,0.0735
4075.613322,0.07279
4088.470144,0.07242
4101.408338,0.0722
4114.428697,0.07175
4127.531971,0.07127
4140.718972,0.07087
4153.990505,0.07042
4167.347385,0.07005
4180.790439,0.06988
4194.320503,0.06975
4207.938425,0.06961
4221.64508,0.06949
4235.441304,0.06922
4249.327994,0.06855
4263.306045,0.06777
4277.376359,0.06733
4291.539855,0.06696
4305.79746,0.06647
4320.150116,0.06604
4334.598795,0.06569
4349.144426,0.0653
4363.788008,0.06507
4378.530532,0.06501
4393.373006,0.06473
4408.316449,0.06437
4423.361896,0.06391
4438.510393,0.06335
4453.763023,0.06297
4469.120824,0.06252
4484.584908,0.06205
4500.15638,0.06181
4515.836365,0.06152
4531.626,0.06087
4547.52644,0.05978
4563.538854,0.05834
4579.664452,0.05667
4595.904394,0.05485
4612.259923,0.05283
4628.732277,0.05062
4645.322713,0.04848
4662.032504,0.04648
4678.862943,0.04452
4695.815342,0.04293
4712.891054,0.04194
4730.091384,0.04146
4747.417723,0.04076
4764.871462,0.0391
4782.45401,0.03723
4800.1668,0.03587
4818.011283,0.0348
4835.988934,0.0341
4854.101273,0.03365
4872.349771,0.03307
4890.735994,0.0326
4909.261506,0.03239
4927.927896,0.03223
4946.736778,0.03209
4965.68979,0.03182
4984.788594,0.03125
5004.034903,0.03081
5023.430384,0.03045
5042.976803,0.02973
5062.675928,0.02889
5082.529556,0.02813
5102.539511,0.0273
5122.707649,0.02657
5143.03585,0.02606
5163.526056,0.02583
5184.180157,0.02609
5205.000154,0.02678
5225.988055,0.02758
5247.145898,0.02827
5268.475756,0.02889
5289.979735,0.02966
5311.659976,0.03047
5333.518684,0.03109
5355.558014,0.03146
5377.780242,0.03153
5400.187657,0.03126
5422.78258,0.03091
5445.567377,0.03094
5468.544451,0.0314
5491.716246,0.03171
5515.085278,0.03153
5538.654014,0.031
5562.425058,0.03008
5586.401024,0.02902
5610.584574,0.02841
5634.978416,0.02823
5659.585305,0.02799
5684.408043,0.02766
5709.449517,0.02733
5734.712564,0.02705
5760.200171,0.02682
5785.915346,0.02665
5811.861151,0.02675
5838.040701,0.02687
5864.457171,0.02676
5891.11379,0.02621
5918.013883,0.02517
5945.160732,0.02421
5972.557781,0.02348
6000.208507,0.02293
6028.116449,0.0228
6056.285213,0.02292
6084.718472,0.02277
6113.41997,0.02228
6142.393557,0.02163
6171.643046,0.02113
6201.172433,0.02103
6230.985758,0.02094
6261.087133,0.02058
6291.480755,0.02046
6322.1709,0.02069
6353.161929,0.02126
6384.458328,0.02225
6416.064553,0.02305
6447.985267,0.02346
6480.225188,0.02376
6512.789128,0.02379
6545.681997,0.02357
6578.908804,0.02296
6612.47466,0.02222
6646.384825,0.02197
6680.644535,0.02203
6715.259268,0.02186
6750.234571,0.02145
6785.576107,0.02114
6821.28966,0.02088
6857.381134,0.0204
6893.856559,0.01974
6930.722144,0.01934
6967.984085,0.01916
7005.648858,0.01896
7043.72303,0.0187
7082.213314,0.01845
7121.126567,0.01821
7160.469802,0.01784
7200.250183,0.01727
7240.47509,0.01667
7281.15191,0.01613
7322.288355,0.01554
7363.892259,0.01483
7405.971636,0.01421
7448.534685,0.01373
7491.589791,0.01328
7535.145539,0.01299
7579.210768,0.01274
7623.794353,0.01232
7668.905555,0.01184
7714.553795,0.01144
7760.74872,0.01105
7807.500211,0.01058
7854.818386,0.01022
7902.713612,0.00998
7951.196573,0.0097
8000.278026,0.00944
8049.969186,0.00913
8100.281485,0.00869
8151.226643,0.00826
8202.816677,0.00788
8255.063908,0.00764
8307.980976,0.00749
8361.580914,0.00724
8415.876885,0.00725
8470.882607,0.00769
8526.612089,0.00815
8583.07971,0.00918
8640.300232,0.01223
8698.288814,0.01824
8757.061026,0.02777
8816.632938,0.04223
8877.020825,0.06121
8938.241648,0.08164
9000.312761,0.10023
9063.252001,0.11231
9127.077709,0.1162
9191.808745,0.11517
9257.464511,0.11277
9324.065051,0.11111
9391.630729,0.11132
9460.182767,0.1122
9529.742923,0.10901
9600.3336,0.09804
9671.977869,0.08277
9744.699495,0.06936
9818.522964,0.06166
9893.473606,0.06247
9969.577237,0.07006
10046.86077,0.07971
10125.35186,0.09041
10205.07902,0.10046
10286.0717,0.1041
10368.36026,0.10194
10451.97605,0.09957
10536.95157,0.09624
10623.32001,0.09131
10711.11603,0.08566
10800.37531,0.07701
10891.13475,0.06546
10983.43249,0.05691
11077.30797,0.05815
11172.80199,0.07094
11269.9569,0.08568
11368.81615,0.08991
11469.42513,0.08407
11571.83069,0.0753
11676.0814,0.06703
11782.22758,0.05946
11890.32139,0.05284
12000.41694,0.04761
12112.5705,0.0438
12226.84001,0.04087
12343.28609,0.03813
12461.97152,0.03557
12582.96151,0.03357
12706.32386,0.03169
12832.12902,0.02944
12960.45029,0.02735
13091.36408,0.02598
13224.94941,0.0246
13361.28907,0.023
13500.46914,0.02228
13642.57932,0.02313
13787.71312,0.02439
13935.96807,0.02403
14087.44596,0.02228
14242.25324,0.02141
14400.50047,0.02309
14562.30382,0.02498
14727.78452,0.02347
14897.06937,0.01993
15070.29108,0.01797
15247.58859,0.01979
15429.10747,0.02377
15615.00054,0.02484
15805.42735,0.02293
16000.55605,0.02379
16200.56297,0.03301
16405.63335,0.05111
16615.96195,0.06977
16831.75363,0.08127
17053.22403,0.08693
17280.60061,0.0933
17514.12221,0.10133
17754.04165,0.10547
18000.62552,0.10777
18254.15542,0.11076
18514.92902,0.10934
18783.26128,0.10883
19059.48566,0.1224
19343.95592,0.14356
19637.04612,0.154
19939.15447,0.14914
20250.70371,0.13366
20572.1434,0.11398
20903.95211,0.0979
21246.63979,0.08831
21600.75039,0.08694
21966.86522,0.09292
22345.60422,0.09391
22737.6323,0.08337
23143.66139,0.07123
23564.45516,0.06537
24000.83388,0.0662
24453.67973,0.07461
24923.94272,0.09708
25412.64804,0.13043
