Database of Origin,University of Winnipeg Spectrophotometer Facility
Sample Description,See Master Clays in HOSERLab database
Date Added,2016-12-11 20:56:55.281768

Data ID,FTIR_CLAY_10        
Sample ID,MIN002
Mineral Name,Minnesotaite
Grain Size,<45 m
Viewing Geometry,35/0
Resolution,11-72 nm
Material Class,Phyllosilicate

Wavelength
2001.142,0.15597503
2002.307,0.15595955
2003.474,0.15592868
2004.643,0.15562544
2005.812,0.15496198
2006.983,0.15454216
2008.155,0.15468987
2009.329,0.15474818
2010.504,0.15466526
2011.68,0.15463813
2012.858,0.15461539
2014.037,0.1545692
2015.217,0.1544717
2016.399,0.15456472
2017.582,0.15477765
2018.766,0.15469823
2019.952,0.15445559
2021.139,0.15412114
2022.328,0.15358376
2023.518,0.15323872
2024.709,0.15340351
2025.902,0.15364237
2027.096,0.15351176
2028.291,0.15330413
2029.488,0.15318459
2030.686,0.15319855
2031.886,0.15321814
2033.087,0.15286385
2034.289,0.15281631
2035.493,0.15306349
2036.698,0.15291059
2037.905,0.15294552
2039.113,0.15316649
2040.322,0.15318263
2041.533,0.15319716
2042.746,0.1530893
2043.959,0.1529713
2045.174,0.15293985
2046.391,0.15292793
2047.609,0.15301941
2048.828,0.15291678
2050.049,0.15253842
2051.271,0.15226796
2052.495,0.15223246
2053.72,0.15221518
2054.947,0.15217893
2056.175,0.15219062
2057.404,0.15213858
2058.635,0.15182157
2059.867,0.15128608
2061.101,0.15096637
2062.336,0.15083247
2063.573,0.15075375
2064.811,0.15085588
2066.051,0.15083288
2067.292,0.15045744
2068.534,0.15009635
2069.778,0.1498985
2071.024,0.14954426
2072.271,0.14941949
2073.519,0.14949036
2074.769,0.14938483
2076.02,0.14925538
2077.273,0.14904735
2078.528,0.14895107
2079.784,0.14881602
2081.041,0.14854622
2082.3,0.14854019
2083.56,0.14846433
2084.822,0.14812209
2086.085,0.1479548
2087.35,0.14807354
2088.617,0.14813814
2089.885,0.14795511
2091.154,0.14780726
2092.425,0.14776754
2093.697,0.14782598
2094.971,0.1480168
2096.247,0.14772981
2097.524,0.14717475
2098.803,0.14704881
2100.083,0.14711088
2101.364,0.14715331
2102.648,0.14671876
2103.932,0.14602063
2105.219,0.14581153
2106.506,0.14582225
2107.796,0.14584791
2109.087,0.14580858
2110.379,0.14553781
2111.673,0.14528463
2112.969,0.14494288
2114.266,0.14449282
2115.565,0.14435347
2116.865,0.14437293
2118.167,0.14423037
2119.471,0.1440078
2120.776,0.14379161
2122.082,0.14367993
2123.391,0.14370136
2124.7,0.14371068
2126.012,0.14385812
2127.325,0.1441111
2128.64,0.14402625
2129.956,0.14376192
2131.274,0.14354286
2132.593,0.14329747
2133.914,0.14304765
2135.237,0.14255413
2136.561,0.14193849
2137.887,0.14170183
2139.214,0.14201771
2140.544,0.14236636
2141.874,0.14223645
2143.207,0.141801
2144.541,0.14152828
2145.876,0.14150335
2147.214,0.14129597
2148.553,0.14129803
2149.893,0.14159198
2151.235,0.14142972
2152.579,0.14096086
2153.925,0.14085126
2155.272,0.14129474
2156.621,0.14134336
2157.972,0.14080459
2159.324,0.14068481
2160.678,0.14098149
2162.033,0.14121942
2163.39,0.14121138
2164.749,0.14103238
2166.11,0.1408453
2167.472,0.14092037
2168.836,0.14103981
2170.202,0.14087739
2171.569,0.14063234
2172.938,0.14028814
2174.309,0.13998518
2175.682,0.1398125
2177.056,0.1395362
2178.432,0.13932168
2179.809,0.13948513
2181.189,0.13957643
2182.57,0.13929604
2183.952,0.13919581
2185.337,0.13927432
2186.723,0.13895126
2188.111,0.13854802
2189.501,0.13842655
2190.892,0.13833275
2192.285,0.13825022
2193.68,0.13833124
2195.077,0.1385033
2196.476,0.13833671
2197.876,0.13792102
2199.278,0.13772907
2200.682,0.13771552
2202.087,0.13761591
2203.494,0.13748036
2204.903,0.1372527
2206.314,0.13706811
2207.727,0.1370088
2209.141,0.13680803
2210.557,0.13661956
2211.975,0.1365982
2213.395,0.13663968
2214.817,0.13665513
2216.24,0.13679496
2217.665,0.1371195
2219.092,0.13710578
2220.521,0.13655022
2221.952,0.13601777
2223.384,0.13577505
2224.818,0.13575942
2226.254,0.13578979
2227.692,0.13571792
2229.132,0.13559022
2230.574,0.13546989
2232.017,0.13538864
2233.462,0.13527798
2234.91,0.13490716
2236.359,0.13418778
2237.809,0.13386983
2239.262,0.13391759
2240.717,0.13388486
2242.173,0.13394169
2243.631,0.13374729
2245.092,0.1335412
2246.554,0.13360387
2248.017,0.13341383
2249.483,0.13310462
2250.951,0.13312669
2252.421,0.13336117
2253.892,0.13348505
2255.365,0.13329635
2256.841,0.13287258
2258.318,0.13250355
2259.797,0.13219785
2261.278,0.13204577
2262.761,0.13209304
2264.246,0.13202713
2265.732,0.13167724
2267.221,0.13133461
2268.712,0.13123527
2270.204,0.13128049
2271.699,0.13144401
2273.195,0.13149396
2274.694,0.13111404
2276.194,0.13074256
2277.696,0.13065664
2279.201,0.13047743
2280.707,0.13055125
2282.215,0.13079421
2283.725,0.13049462
2285.237,0.13007626
2286.752,0.12999344
2288.268,0.12993182
2289.786,0.12988567
2291.306,0.12991949
2292.828,0.12987122
2294.352,0.12982582
2295.878,0.12960669
2297.406,0.12929817
2298.936,0.12922774
2300.468,0.12911469
2302.002,0.12899735
2303.539,0.12901628
2305.077,0.12900483
2306.617,0.12890128
2308.159,0.128832
2309.703,0.12870569
2311.25,0.12840744
2312.798,0.12822415
2314.348,0.12811754
2315.901,0.12790039
2317.455,0.127654
2319.012,0.12758264
2320.571,0.1275488
2322.131,0.12733314
2323.694,0.12711299
2325.259,0.12702448
2326.826,0.12714993
2328.395,0.12708571
2329.966,0.12670691
2331.54,0.12654204
2333.115,0.12665854
2334.692,0.12680287
2336.272,0.12668075
2337.854,0.12639902
2339.437,0.12617317
2341.023,0.12592852
2342.611,0.12584196
2344.201,0.12599104
2345.794,0.12598843
2347.388,0.12577826
2348.985,0.12564221
2350.583,0.12560008
2352.184,0.12557131
2353.787,0.12559523
2355.393,0.1257407
2357.0,0.12572886
2358.609,0.12562943
2360.221,0.12562111
2361.835,0.12548822
2363.451,0.12533971
2365.069,0.1252748
2366.69,0.12523488
2368.312,0.12540563
2369.937,0.12582855
2371.564,0.12602882
2373.194,0.12586891
2374.825,0.12577131
2376.459,0.12592788
2378.095,0.12617934
2379.733,0.12614701
2381.373,0.12597849
2383.016,0.12601309
2384.661,0.1259439
2386.308,0.12584879
2387.957,0.12607381
2389.609,0.12630303
2391.263,0.12623863
2392.919,0.12608366
2394.577,0.1260256
2396.238,0.12614082
2397.901,0.12609965
2399.566,0.12571605
2401.233,0.12550202
2402.903,0.12558575
2404.575,0.12560092
2406.25,0.12544866
2407.926,0.12521842
2409.606,0.12497963
2411.287,0.12477243
2412.971,0.12463386
2414.657,0.12461584
2416.345,0.12462928
2418.036,0.12449078
2419.729,0.12427273
2421.424,0.12431969
2423.122,0.12438791
2424.822,0.12418242
2426.524,0.12411992
2428.229,0.12424368
2429.936,0.12424901
2431.646,0.12399569
2433.358,0.12390362
2435.072,0.12408754
2436.789,0.12399438
2438.508,0.12384906
2440.229,0.1238186
2441.953,0.12367144
2443.679,0.12362343
2445.408,0.12377873
2447.139,0.12383062
2448.873,0.12370913
2450.609,0.12352876
2452.347,0.12336034
2454.088,0.12334754
2455.831,0.12335855
2457.577,0.12310254
2459.325,0.12278309
2461.076,0.12255915
2462.829,0.12246204
2464.585,0.12253757
2466.343,0.12249896
2468.104,0.12235258
2469.867,0.12222682
2471.632,0.1221795
2473.4,0.12224909
2475.171,0.12222505
2476.944,0.12216676
2478.72,0.12215643
2480.498,0.12195835
2482.278,0.12175922
2484.062,0.12181495
2485.847,0.12194165
2487.636,0.12209445
2489.427,0.12222273
2491.22,0.12229076
2493.016,0.12224128
2494.814,0.12224751
2496.615,0.12239492
2498.419,0.12235206
2500.225,0.12226573
2502.034,0.12229189
2503.845,0.12243693
2505.659,0.12243323
2507.476,0.12210585
2509.295,0.12206106
2511.117,0.12215543
2512.942,0.1219128
2514.769,0.12180666
2516.598,0.1218888
2518.431,0.12185872
2520.266,0.12208465
2522.103,0.12264821
2523.944,0.1228742
2525.787,0.1225536
2527.632,0.12215663
2529.48,0.122459
2531.331,0.1232732
2533.185,0.12356506
2535.041,0.12374008
2536.9,0.12350309
2538.762,0.12278227
2540.627,0.12334876
2542.494,0.12459037
2544.364,0.12417275
2546.236,0.12363974
2548.112,0.12394925
2549.99,0.12455657
2551.87,0.12517464
2553.754,0.12408562
2555.64,0.12255885
2557.529,0.1228978
2559.421,0.12616565
2561.316,0.1306589
2563.213,0.13083528
2565.113,0.12693867
2567.016,0.12501726
2568.922,0.1257566
2570.831,0.12642511
2572.742,0.12746514
2574.656,0.1284594
2576.573,0.12739659
2578.493,0.1253312
2580.416,0.12619104
2582.342,0.13002777
2584.27,0.13120816
2586.201,0.13025992
2588.135,0.12925726
2590.072,0.12694825
2592.012,0.12900473
2593.955,0.13900646
2595.9,0.13828674
2597.849,0.12827267
2599.8,0.12581578
2601.755,0.12859067
2603.712,0.13268462
2605.672,0.13424267
2607.635,0.13145087
2609.601,0.12801144
2611.57,0.12597661
2613.542,0.12690857
2615.517,0.13129405
2617.495,0.13452046
2619.475,0.13327151
2621.459,0.12882419
2623.446,0.12543166
2625.435,0.12710154
2627.428,0.13063062
2629.424,0.13324743
2631.423,0.13330169
2633.424,0.12966592
2635.429,0.12639454
2637.437,0.12469507
2639.447,0.12489744
2641.461,0.12582147
2643.478,0.12663923
2645.498,0.12766949
2647.521,0.12660271
2649.547,0.12511894
2651.576,0.12671554
2653.609,0.12888743
2655.644,0.12820889
2657.682,0.12783576
2659.724,0.12963311
2661.768,0.13063203
2663.816,0.13450711
2665.867,0.14198842
2667.921,0.14307811
2669.978,0.14287702
2672.038,0.13770758
2674.102,0.13358316
2676.168,0.13883745
2678.238,0.13947932
2680.311,0.13055981
2682.387,0.12759343
2684.467,0.12977402
2686.549,0.13042783
2688.635,0.12803275
2690.724,0.12683675
2692.816,0.13095522
2694.911,0.13450329
2697.01,0.12903761
2699.112,0.12538031
2701.217,0.12569432
2703.325,0.124286
2705.437,0.12231725
2707.552,0.12381915
2709.67,0.12831851
2711.791,0.12634574
2713.916,0.11779016
2716.044,0.11193595
2718.175,0.11311566
2720.31,0.11853934
2722.448,0.11646652
2724.589,0.10954863
2726.734,0.10022909
2728.882,0.09218404
2731.034,0.08710566
2733.188,0.08355105
2735.347,0.0793521
2737.508,0.07516019
2739.673,0.0740435
2741.841,0.07015754
2744.013,0.06317041
2746.188,0.05904167
2748.367,0.05707624
2750.549,0.05581437
2752.734,0.05531335
2754.923,0.0556168
2757.115,0.05382101
2759.311,0.05123462
2761.51,0.05067576
2763.713,0.0507318
2765.919,0.05010413
2768.129,0.04995183
2770.342,0.05007604
2772.559,0.04960765
2774.779,0.04919972
2777.003,0.04922565
2779.23,0.04925472
2781.461,0.04923733
2783.696,0.04921566
2785.934,0.04921373
2788.175,0.04915107
2790.42,0.04897642
2792.669,0.04905623
2794.922,0.04914787
2797.178,0.04924014
2799.437,0.04942801
2801.7,0.04972974
2803.967,0.05010636
2806.238,0.05025998
2808.512,0.05030541
2810.789,0.05042135
2813.071,0.05061428
2815.356,0.05084361
2817.645,0.0511427
2819.937,0.05143576
2822.233,0.05168262
2824.533,0.05190514
2826.837,0.05228609
2829.144,0.05275427
2831.455,0.05297142
2833.77,0.05315944
2836.089,0.05335389
2838.411,0.05325293
2840.737,0.05352938
2843.067,0.05443603
2845.401,0.05483115
2847.739,0.05432086
2850.08,0.0539981
2852.425,0.05405036
2854.774,0.05392956
2857.127,0.05374918
2859.484,0.054006
2861.844,0.05477945
2864.209,0.05499614
2866.577,0.05470235
2868.949,0.05464031
2871.325,0.05451722
2873.705,0.05441972
2876.089,0.05435807
2878.477,0.0543958
2880.869,0.05468396
2883.265,0.05440488
2885.664,0.05386832
2888.068,0.05450527
2890.476,0.05543937
2892.887,0.05499088
2895.303,0.05436162
2897.723,0.05414092
2900.146,0.05363663
2902.574,0.05338461
2905.006,0.05349542
2907.441,0.05356741
2909.881,0.05351749
2912.325,0.05344396
2914.773,0.0538867
2917.225,0.054752
2919.681,0.05490902
2922.142,0.05446987
2924.606,0.05385989
2927.075,0.05326217
2929.547,0.05321947
2932.024,0.05329322
2934.505,0.05347497
2936.99,0.05412643
2939.479,0.05453777
2941.973,0.05425479
2944.471,0.05452986
2946.973,0.05619657
2949.479,0.05636379
2951.989,0.05493383
2954.504,0.05537963
2957.023,0.05601521
2959.546,0.05507361
2962.073,0.05433776
2964.605,0.0544189
2967.141,0.05470003
2969.681,0.05466177
2972.226,0.05548484
2974.775,0.0576248
2977.328,0.05813354
2979.886,0.05676036
2982.448,0.05618167
2985.015,0.05605818
2987.586,0.05591617
2990.161,0.05710184
2992.74,0.05822911
2995.324,0.0577555
2997.913,0.05747956
3000.506,0.05820949
3003.103,0.05896946
3005.705,0.05876382
3008.312,0.05805394
3010.922,0.05808902
3013.538,0.05891024
3016.158,0.05953248
3018.782,0.05920448
3021.411,0.05889107
3024.044,0.05916872
3026.683,0.05991141
3029.325,0.061918
3031.972,0.06425546
3034.624,0.0639654
3037.281,0.06196042
3039.942,0.0615868
3042.607,0.06289463
3045.278,0.06371908
3047.953,0.06306453
3050.632,0.06241866
3053.317,0.06244497
3056.006,0.0624189
3058.7,0.06286839
3061.398,0.06396028
3064.101,0.06530684
3066.809,0.06557401
3069.522,0.06450823
3072.239,0.06391795
3074.962,0.06417839
3077.689,0.06483387
3080.421,0.06522426
3083.157,0.06514591
3085.899,0.06567173
3088.645,0.06636228
3091.396,0.0661376
3094.153,0.06571134
3096.914,0.06604166
3099.679,0.06730402
3102.45,0.06777308
3105.226,0.06671983
3108.007,0.06609971
3110.792,0.06633468
3113.583,0.06657579
3116.378,0.06667693
3119.179,0.06695636
3121.985,0.06727652
3124.795,0.06739876
3127.611,0.06742537
3130.431,0.06747089
3133.257,0.06754777
3136.088,0.06764077
3138.924,0.06796735
3141.765,0.0684251
3144.611,0.06871617
3147.462,0.06874339
3150.319,0.06878408
3153.18,0.06910877
3156.047,0.06941874
3158.919,0.06947995
3161.796,0.06948295
3164.678,0.06964539
3167.566,0.06982739
3170.458,0.06996739
3173.356,0.07024245
3176.26,0.0708344
3179.168,0.07249528
3182.082,0.07364699
3185.001,0.07265526
3187.926,0.07175025
3190.856,0.07236548
3193.791,0.07380769
3196.731,0.07409743
3199.677,0.07313812
3202.629,0.07312124
3205.585,0.07350567
3208.548,0.07337579
3211.515,0.07473241
3214.488,0.07778707
3217.467,0.0792139
3220.451,0.07754857
3223.441,0.07581925
3226.436,0.07573865
3229.437,0.07539032
3232.443,0.07531253
3235.455,0.07589409
3238.472,0.0756769
3241.495,0.075793
3244.523,0.0769897
3247.558,0.07797625
3250.598,0.07873505
3253.643,0.07975565
3256.694,0.08070447
3259.751,0.07988038
3262.814,0.0776287
3265.882,0.07722269
3268.956,0.07859375
3272.036,0.07896344
3275.122,0.07794012
3278.213,0.07746178
3281.31,0.07802685
3284.413,0.07887877
3287.522,0.07941559
3290.637,0.07948793
3293.757,0.08052515
3296.884,0.08163858
3300.016,0.08065359
3303.155,0.07989053
3306.299,0.08031914
3309.449,0.07977902
3312.605,0.07912279
3315.767,0.07939771
3318.936,0.07954112
3322.11,0.07987515
3325.29,0.08138042
3328.476,0.08292306
3331.669,0.08178179
3334.867,0.07863468
3338.072,0.07672043
3341.282,0.07630989
3344.499,0.07651471
3347.722,0.07696859
3350.952,0.0775986
3354.187,0.07722316
3357.429,0.07590853
3360.677,0.07605349
3363.931,0.07752735
3367.191,0.0781131
3370.458,0.07777789
3373.731,0.07740516
3377.01,0.07659874
3380.296,0.07620727
3383.588,0.07669938
3386.886,0.07713093
3390.191,0.0772191
3393.502,0.07778859
3396.82,0.07896669
3400.144,0.07966786
3403.475,0.08070016
3406.812,0.08164066
3410.156,0.08041331
3413.506,0.07887576
3416.862,0.07867347
3420.226,0.07953451
3423.596,0.08100659
3426.972,0.08111054
3430.355,0.08032453
3433.745,0.08055838
3437.141,0.08205909
3440.545,0.08448949
3443.954,0.08537391
3447.371,0.08344184
3450.794,0.08168984
3454.224,0.0814489
3457.661,0.08135587
3461.105,0.08156144
3464.556,0.0819444
3468.013,0.08137823
3471.477,0.08072376
3474.948,0.08071813
3478.426,0.08084636
3481.911,0.08110639
3485.403,0.08170527
3488.902,0.08364582
3492.408,0.08507335
3495.921,0.083909
3499.441,0.08294044
3502.968,0.08334682
3506.502,0.08419948
3510.043,0.08486934
3513.592,0.08489306
3517.147,0.08506594
3520.71,0.08606537
3524.28,0.08697054
3527.857,0.08713281
3531.441,0.08866369
3535.032,0.09062279
3538.631,0.09017472
3542.237,0.08916871
3545.851,0.08910958
3549.471,0.08948406
3553.099,0.09010471
3556.735,0.09069303
3560.378,0.09108051
3564.028,0.0914202
3567.686,0.09234365
3571.351,0.09319942
3575.024,0.0932082
3578.704,0.09333359
3582.392,0.09437368
3586.088,0.0955136
3589.791,0.09559445
3593.501,0.09580647
3597.22,0.09660839
3600.946,0.09629473
3604.679,0.095565
3608.421,0.09560492
3612.17,0.09645067
3615.926,0.0976371
3619.691,0.09761327
3623.463,0.09706194
3627.244,0.09718579
3631.032,0.09730325
3634.828,0.09744434
3638.632,0.09784343
3642.444,0.09816098
3646.263,0.09868917
3650.091,0.09959655
3653.927,0.09981506
3657.771,0.0994052
3661.623,0.09958544
3665.483,0.10013767
3669.351,0.10034439
3673.227,0.1004085
3677.111,0.10114441
3681.004,0.10232552
3684.905,0.10281304
3688.814,0.10253114
3692.731,0.10215363
3696.656,0.10223099
3700.59,0.10272163
3704.532,0.10320184
3708.483,0.10353547
3712.442,0.10383875
3716.409,0.10413574
3720.385,0.10450175
3724.37,0.10495217
3728.362,0.10535833
3732.364,0.10567137
3736.374,0.10610574
3740.392,0.10694079
3744.419,0.10791632
3748.455,0.10857766
3752.499,0.10888411
3756.553,0.10880282
3760.614,0.108711
3764.685,0.10914941
3768.764,0.10980517
3772.853,0.11037544
3776.95,0.11085743
3781.056,0.11123467
3785.17,0.11151727
3789.294,0.11177203
3793.427,0.11217008
3797.568,0.11265184
3801.719,0.11304388
3805.879,0.11336968
3810.048,0.11361834
3814.225,0.11376159
3818.412,0.11405294
3822.609,0.11455898
3826.814,0.11478188
3831.029,0.11494701
3835.252,0.11538415
3839.486,0.11575265
3843.728,0.11626373
3847.98,0.11687978
3852.241,0.117251
3856.512,0.11759888
3860.792,0.11808078
3865.081,0.11875308
3869.38,0.11952124
3873.689,0.12021117
3878.007,0.12098469
3882.334,0.12175433
3886.672,0.12252507
3891.019,0.12333088
3895.375,0.12396603
3899.742,0.12455229
3904.118,0.12513309
3908.504,0.12562524
3912.9,0.12620373
3917.305,0.12693902
3921.721,0.12764993
3926.146,0.12825329
3930.581,0.12868364
3935.027,0.12889255
3939.482,0.1291651
3943.948,0.12959025
3948.423,0.12975593
3952.909,0.12986767
3957.405,0.13042306
3961.911,0.13122993
3966.427,0.13221563
3970.954,0.13337358
3975.491,0.13449392
3980.038,0.13563966
3984.595,0.13690056
3989.163,0.1381679
3993.742,0.13944887
3998.33,0.14067852
4002.93,0.14172874
4007.54,0.14273407
4012.16,0.14376507
4016.791,0.14486585
4021.433,0.14614934
4026.086,0.14772224
4030.749,0.14957497
4035.423,0.15154192
4040.108,0.15355477
4044.804,0.15555202
4049.51,0.15759781
4054.228,0.15971214
4058.956,0.16165284
4063.695,0.16345797
4068.446,0.16522496
4073.207,0.16695257
4077.98,0.16872369
4082.764,0.17035853
4087.559,0.17185032
4092.365,0.17338583
4097.183,0.17490961
4102.012,0.1764692
4106.852,0.17794412
4111.703,0.17933276
4116.566,0.18096682
4121.441,0.18257217
4126.327,0.18404132
4131.224,0.18568898
4136.133,0.18720361
4141.054,0.18855313
4145.987,0.1901498
4150.931,0.1917776
4155.887,0.19336004
4160.854,0.19507925
4165.834,0.1967315
4170.826,0.19832275
4175.829,0.20005127
4180.844,0.20184281
4185.872,0.20381002
4190.911,0.20643185
4195.963,0.21043465
4201.026,0.2168745
4206.102,0.22637808
4211.19,0.23834769
4216.291,0.2516521
4221.404,0.26497986
4226.529,0.27703309
4231.666,0.28688831
4236.816,0.29311581
4241.979,0.29428003
4247.154,0.28924818
4252.341,0.27566292
4257.542,0.26542749
4262.754,0.27103207
4267.98,0.2849815
4273.219,0.29114966
4278.47,0.2917914
4283.734,0.29237509
4289.011,0.29384663
4294.301,0.29398957
4299.604,0.29236978
4304.92,0.29149796
4310.25,0.2896075
4315.592,0.28560227
4320.948,0.28232606
4326.317,0.28034738
4331.699,0.27818744
4337.095,0.27615945
4342.504,0.27498206
4347.926,0.2745816
4353.362,0.27470268
4358.811,0.27530129
4364.275,0.27620594
4369.751,0.27713098
4375.242,0.27813939
4380.746,0.27953483
4386.264,0.28160021
4391.796,0.28404209
4397.342,0.28643578
4402.902,0.28874901
4408.476,0.29102106
4414.064,0.29332007
4419.666,0.29540249
4425.282,0.29726738
4430.913,0.2993196
4436.558,0.30157259
4442.217,0.30379778
4447.891,0.30591707
4453.579,0.30810954
4459.281,0.3103656
4464.998,0.31263395
4470.73,0.31489121
4476.477,0.31702249
4482.238,0.31910746
4488.014,0.32121034
4493.805,0.32333322
4499.611,0.32540704
4505.431,0.32768594
4511.267,0.33005005
4517.118,0.33210768
4522.984,0.33420743
4528.865,0.3363509
4534.762,0.33843669
4540.674,0.3406541
4546.601,0.3428782
4552.543,0.34513296
4558.502,0.34752771
4564.475,0.34976362
4570.465,0.35170974
4576.47,0.35367806
4582.491,0.35573331
4588.527,0.35787732
4594.58,0.36012607
4600.648,0.36224921
4606.732,0.36448584
4612.833,0.36686589
4618.949,0.36905739
4625.082,0.37126884
4631.231,0.37349747
4637.397,0.37576186
4643.578,0.37811277
4649.777,0.38043621
4655.991,0.38291025
4662.223,0.38528793
4668.471,0.3876676
4674.735,0.39049927
4681.017,0.39308589
4687.315,0.39518918
4693.63,0.39743409
4699.962,0.39979479
4706.312,0.40221217
4712.678,0.40478054
4719.062,0.40743129
4725.463,0.41017446
4731.881,0.41274819
4738.316,0.41504552
4744.769,0.41740179
4751.24,0.41989805
4757.728,0.42241376
4764.234,0.42483468
4770.758,0.42711509
4777.299,0.42983755
4783.859,0.43299347
4790.436,0.4354726
4797.032,0.43746782
4803.645,0.43972524
4810.277,0.44211126
4816.927,0.4443324
4823.596,0.44632865
4830.283,0.44840438
4836.988,0.45141468
4843.712,0.45427057
4850.455,0.45559767
4857.216,0.45703885
4863.996,0.45911745
4870.795,0.46112618
4877.613,0.46302037
4884.451,0.46497973
4891.307,0.4676386
4898.182,0.47029482
4905.077,0.47172786
4911.991,0.47313907
4918.925,0.47525614
4925.878,0.47732764
4932.851,0.47950783
4939.844,0.4817253
4946.856,0.48449417
4953.888,0.48843659
4960.941,0.49048054
4968.013,0.49043378
4975.105,0.49174711
4982.218,0.49387705
4989.351,0.49569228
4996.504,0.49782176
5003.678,0.49987468
5010.872,0.50362163
5018.087,0.50958732
5025.323,0.51162225
5032.58,0.51010549
5039.857,0.51024478
5047.156,0.51186501
5054.475,0.51385332
5061.816,0.51592953
5069.179,0.51806839
5076.562,0.52249033
5083.967,0.52675269
5091.394,0.52652717
5098.842,0.5263682
5106.312,0.52853162
5113.804,0.53075947
5121.318,0.53248273
5128.854,0.53443334
5136.412,0.53944627
5143.992,0.54728108
5151.595,0.54820674
5159.22,0.54404516
5166.868,0.54456307
5174.538,0.54704201
5182.231,0.54845025
5189.947,0.55266951
5197.686,0.56007338
5205.448,0.56608934
5213.233,0.5684348
5221.041,0.5650477
5228.873,0.56475312
5236.728,0.56937148
5244.607,0.5698048
5252.51,0.56932678
5260.436,0.57105633
5268.386,0.57505081
5276.36,0.57941539
5284.358,0.58426839
5292.381,0.58832991
5300.428,0.58625242
5308.499,0.58453195
5316.595,0.58618034
5324.715,0.58790135
5332.86,0.5901336
5341.031,0.6015558
5349.226,0.6173372
5357.446,0.61298077
5365.692,0.60240097
5373.962,0.60217447
5382.259,0.60363965
5390.581,0.60429574
5398.928,0.60714796
5407.302,0.61583345
5415.701,0.63254098
5424.127,0.63809186
5432.579,0.62602377
5441.057,0.62164873
5449.561,0.62648881
5458.092,0.63854894
5466.65,0.6518386
5475.234,0.65140275
5483.846,0.64448689
5492.484,0.63737921
5501.15,0.63762168
5509.843,0.64314453
5518.564,0.65265826
5527.312,0.65742244
5536.087,0.65678762
5544.891,0.67625693
5553.723,0.69396268
5562.582,0.66995651
5571.47,0.58767601
5580.387,0.57004072
5589.332,0.59111273
5598.305,0.60036895
5607.307,0.60980424
5616.339,0.61584943
5625.399,0.62254593
5634.489,0.63831677
5643.607,0.64908995
5652.756,0.64401341
5661.934,0.6405596
5671.142,0.64673803
5680.379,0.65217717
5689.647,0.65238553
5698.945,0.6574188
5708.274,0.67221721
5717.633,0.67919128
5727.022,0.67552841
5736.443,0.67747556
5745.894,0.67950068
5755.377,0.68680749
5764.89,0.70074062
5774.436,0.69428062
5784.012,0.68068408
5793.621,0.67755276
5803.262,0.68500419
5812.934,0.70741317
5822.639,0.72483513
5832.376,0.71137868
5842.146,0.69941653
5851.948,0.70689555
5861.783,0.72013707
5871.652,0.73459999
5881.553,0.74943781
5891.488,0.74329128
5901.457,0.72393351
5911.459,0.71777064
5921.495,0.7316029
5931.565,0.75500861
5941.67,0.74998056
5951.809,0.73305406
5961.982,0.73618357
5972.19,0.74519904
5982.433,0.75084336
5992.711,0.74404121
6003.025,0.73678542
6013.374,0.73809377
6023.759,0.73466888
6034.179,0.75281091
6044.636,0.78284868
6055.129,0.77665622
6065.658,0.77254904
6076.224,0.76300821
6086.826,0.74668058
6097.466,0.75775324
6108.143,0.77773312
6118.857,0.76592806
6129.609,0.75395997
6140.398,0.76117076
6151.226,0.76880321
6162.091,0.76746804
6172.996,0.77070698
6183.938,0.77467859
6194.92,0.76574167
6205.94,0.76285261
6217.0,0.76517929
6228.099,0.76522315
6239.237,0.76559499
6250.416,0.76607017
6261.635,0.76842493
6272.893,0.77027198
6284.193,0.77045162
6295.533,0.77115721
6306.914,0.77265852
6318.336,0.77581378
6329.799,0.78886146
6341.304,0.79863597
6352.851,0.79526876
6364.44,0.79945446
6376.071,0.79978548
6387.745,0.79853538
6399.461,0.82067073
6411.221,0.844989
6423.023,0.82930539
6434.869,0.81312512
6446.759,0.80964371
6458.693,0.81441744
6470.671,0.83428699
6482.693,0.85429955
6494.76,0.8421064
6506.872,0.82865827
6519.029,0.82738223
6531.231,0.82528599
6543.48,0.83166868
6555.774,0.84450965
6568.114,0.85195609
6580.501,0.85001592
6592.934,0.84186335
6605.415,0.83886977
6617.943,0.85565785
6630.518,0.86850138
6643.141,0.84470333
6655.812,0.83372257
6668.532,0.84225726
6681.3,0.83986723
6694.117,0.84002714
6706.983,0.85062745
6719.899,0.84495688
6732.864,0.83370808
6745.879,0.83315623
6758.945,0.84073609
6772.062,0.8559006
6785.229,0.85960572
6798.448,0.84646648
6811.718,0.84463342
6825.039,0.84732804
6838.413,0.8534669
6851.84,0.87111991
6865.319,0.86634384
6878.851,0.85074602
6892.437,0.84997119
6906.076,0.85024779
6919.769,0.84604477
6933.517,0.84880367
6947.319,0.8606748
6961.176,0.8634889
6975.089,0.85925493
6989.057,0.85918739
7003.081,0.85966966
7017.161,0.86384025
7031.298,0.87342823
7045.492,0.87523783
7059.743,0.86635256
7074.052,0.86238756
7088.419,0.86432321
7102.845,0.86779534
7117.329,0.87015793
7131.872,0.87424168
7146.475,0.88174918
7161.137,0.88213691
7175.86,0.87687293
7190.643,0.87842739
7205.487,0.88041678
7220.393,0.87727164
7235.36,0.87773199
7250.39,0.88266757
7265.481,0.88720622
7280.636,0.88681087
7295.854,0.88509212
7311.135,0.88801084
7326.481,0.89343589
7341.891,0.89301619
7357.366,0.88981923
7372.906,0.89001152
7388.512,0.89101208
7404.184,0.89203372
7419.922,0.89286611
7435.728,0.89654102
7451.601,0.90294811
7467.541,0.90337015
7483.55,0.89955573
7499.628,0.8988115
7515.774,0.90009837
7531.99,0.90136733
7548.277,0.9031759
7564.633,0.90580258
7581.061,0.90757265
7597.56,0.90805399
7614.131,0.90788274
7630.774,0.90782663
7647.491,0.90855761
7664.28,0.90948514
7681.143,0.91053716
7698.08,0.9116923
7715.093,0.91267574
7732.18,0.91389581
7749.343,0.91520359
7766.583,0.91587479
7783.899,0.91649098
7801.292,0.91744754
7818.764,0.91834576
7836.313,0.91965166
7853.942,0.92135096
7871.649,0.92256391
7889.437,0.92339779
7907.305,0.9246782
7925.254,0.92601932
7943.285,0.92677013
7961.398,0.92745728
7979.594,0.92839214
7997.872,0.92946707
8016.235,0.93072807
8034.682,0.9318501
8053.214,0.93251812
8071.832,0.93325772
8090.535,0.93440078
8109.326,0.93554773
8128.204,0.93653813
8147.169,0.93738606
8166.224,0.93810455
8185.368,0.93896336
8204.601,0.93999002
8223.925,0.94086891
8243.34,0.94145015
8262.847,0.9419968
8282.446,0.94274029
8302.139,0.94366269
8321.925,0.94454659
8341.805,0.94526348
8361.781,0.94597183
8381.852,0.94671954
8402.02,0.94754531
8422.285,0.94833064
8442.648,0.94896698
8463.109,0.94965841
8483.67,0.95053894
8504.331,0.95136371
8525.092,0.95197979
8545.955,0.95265107
8566.921,0.95335683
8587.989,0.95399489
8609.161,0.95473942
8630.437,0.95551189
8651.819,0.95615907
8673.307,0.956808
8694.902,0.95758514
8716.604,0.95835059
8738.415,0.95900393
8760.335,0.95961771
8782.365,0.96037821
8804.507,0.96117691
8826.76,0.96169776
8849.125,0.96220465
8871.604,0.96294374
8894.198,0.96371321
8916.907,0.96438211
8939.732,0.96493947
8962.673,0.96549858
8985.733,0.9661271
9008.912,0.96655616
9032.21,0.96675461
9055.629,0.96701404
9079.17,0.96730374
9102.833,0.96759331
9126.62,0.96786121
9150.531,0.96789056
9174.568,0.96782311
9198.731,0.96791748
9223.022,0.96799701
9247.441,0.96803341
9271.99,0.96812183
9296.669,0.96811221
9321.48,0.96818076
9346.423,0.96852437
9371.5,0.96886982
9396.712,0.96901078
9422.06,0.96910527
9447.545,0.96944145
9473.167,0.96990603
9498.929,0.97027487
9524.832,0.97056678
9550.876,0.97087058
9577.062,0.97127338
9603.393,0.97167402
9629.868,0.97197705
9656.49,0.97221673
9683.259,0.97254117
9710.176,0.97292271
9737.244,0.97317849
9764.463,0.9734243
9791.834,0.97384287
9819.359,0.97437947
9847.039,0.9749197
9874.875,0.97530864
9902.869,0.97552064
9931.022,0.9757481
9959.336,0.97616538
9987.811,0.97666991
10016.449,0.97709702
10045.252,0.97748562
10074.221,0.9778326
10103.357,0.9781664
10132.662,0.97857393
10162.137,0.97898965
10191.784,0.97934344
10221.604,0.97966693
10251.6,0.98001136
10281.771,0.98039156
10312.121,0.9808265
10342.65,0.98127031
10373.36,0.98158386
10404.253,0.98181564
10435.331,0.9820508
10466.594,0.98225607
10498.045,0.98245807
10529.686,0.98266763
10561.517,0.98280099
10593.542,0.98288505
10625.761,0.98296749
10658.176,0.9830035
10690.79,0.98316488
10723.604,0.98345733
10756.619,0.98366993
10789.839,0.98378531
10823.264,0.98393328
10856.896,0.98415585
10890.738,0.98426137
10924.791,0.98424467
10959.058,0.98434069
10993.541,0.98454748
11028.24,0.98457463
11063.16,0.98437742
11098.301,0.9842544
11133.665,0.9843096
11169.256,0.98436744
11205.075,0.98440971
11241.124,0.9846453
11277.405,0.98494811
11313.921,0.98499153
11350.675,0.98487795
11387.667,0.98487074
11424.901,0.98501856
11462.38,0.98515459
11500.105,0.98518007
11538.079,0.98521438
11576.304,0.98531053
11614.783,0.98536062
11653.518,0.98540298
11692.513,0.98552666
11731.769,0.98567183
11771.29,0.98581227
11811.077,0.98586378
11851.134,0.98594622
11891.464,0.9861055
11932.068,0.98616409
11972.951,0.98620084
12014.114,0.98614309
12055.562,0.98609214
12097.296,0.98633204
12139.32,0.98642246
12181.636,0.98614134
12224.249,0.9859173
12267.16,0.98590734
12310.373,0.98600615
12353.892,0.98602697
12397.719,0.98614636
12441.859,0.9863768
12486.313,0.98642094
12531.086,0.98653335
12576.18,0.98672362
12621.601,0.98672963
12667.35,0.98672713
12713.432,0.98685602
12759.85,0.98702419
12806.608,0.98719372
12853.71,0.98728286
12901.159,0.98739276
12948.96,0.98769377
12997.116,0.98787053
13045.631,0.98765849
13094.51,0.9873376
13143.756,0.98734161
13193.373,0.98743283
13243.366,0.98743688
13293.74,0.98758905
13344.497,0.987646
13395.644,0.98756397
13447.183,0.98750273
13499.121,0.9873442
13551.461,0.98694354
13604.208,0.98685295
13657.367,0.98735492
13710.943,0.9874938
13764.941,0.98702526
13819.365,0.98658161
13874.221,0.98630555
13929.515,0.98597611
13985.25,0.98553562
14041.433,0.98491676
14098.068,0.98433549
14155.163,0.98369833
14212.721,0.98252526
14270.749,0.98152302
14329.252,0.98101787
14388.237,0.98021819
14447.709,0.97903337
14507.674,0.97744023
14568.139,0.9753609
14629.109,0.97317405
14690.592,0.97027907
14752.594,0.96613699
14815.121,0.96175104
14878.179,0.95950435
14941.777,0.95631527
15005.92,0.94728723
15070.616,0.93686966
15135.871,0.92556707
15201.695,0.91108082
15268.092,0.89260031
15335.072,0.87026976
15402.642,0.84500093
15470.81,0.81582769
15539.583,0.78324859
15608.97,0.74388228
15678.979,0.69873553
15749.619,0.65623608
15820.897,0.61842634
15892.824,0.58013644
15965.407,0.53684103
