Database of Origin,University of Winnipeg Spectrophotometer Facility
Sample Description,Carbonates and Oxolates -  D&P Spectra Reflectance spectra
Other Information,in air reference no window
Date Added,2018-08-06 21:06:09.513860

Data ID,FTIR_CARB_39_2      
Sample ID,CRB105
Mineral Name,Huntite
Locality,Currant Creek/ Nevada/ USA
Grain Size,<45 um
Viewing Geometry,i=35/ e=0
Resolution,~3 cm-1
Formula,Mg3Ca(CO3)5
Composition,Huntite plus a few very minor peaks.

Wavelength
2.001142,0.33691671
2.002307,0.33764351
2.003474,0.33765279
2.004643,0.33734662
2.005812,0.33739038
2.006983,0.33789545
2.008155,0.33846524
2.009329,0.33887453
2.010504,0.33888718
2.01168,0.33876879
2.012858,0.33895531
2.014037,0.33934917
2.015217,0.33966499
2.016399,0.33957672
2.017582,0.339399
2.018766,0.33956572
2.019952,0.3398956
2.021139,0.34022269
2.022328,0.34055155
2.023518,0.34053206
2.024709,0.34035796
2.025902,0.34056081
2.027096,0.34079398
2.028291,0.34077235
2.029488,0.34051805
2.030686,0.34036723
2.031886,0.34071999
2.033087,0.3409962
2.034289,0.34087381
2.035493,0.34081072
2.036698,0.34093192
2.037905,0.34112569
2.039113,0.34131933
2.040322,0.34146973
2.041533,0.34157828
2.042746,0.34170294
2.043959,0.34178806
2.045174,0.34163087
2.046391,0.34171378
2.047609,0.34214079
2.048828,0.34204542
2.050049,0.34175556
2.051271,0.34210097
2.052495,0.34244766
2.05372,0.34234332
2.054947,0.3422582
2.056175,0.3422201
2.057404,0.34216039
2.058635,0.34205147
2.059867,0.34202855
2.061101,0.34196037
2.062336,0.3416202
2.063573,0.34157427
2.064811,0.34197357
2.066051,0.34246125
2.067292,0.3427002
2.068534,0.34248162
2.069778,0.34222601
2.071024,0.34209783
2.072271,0.34189637
2.073519,0.34180964
2.074769,0.34175018
2.07602,0.34177471
2.077273,0.34216739
2.078528,0.3422431
2.079784,0.34187011
2.081041,0.34185424
2.0823,0.34177141
2.08356,0.34152561
2.084822,0.34175298
2.086085,0.34200779
2.08735,0.34201182
2.088617,0.34224047
2.089885,0.34282368
2.091154,0.34306668
2.092425,0.34274501
2.093697,0.34249502
2.094971,0.34253944
2.096247,0.34254058
2.097524,0.34267518
2.098803,0.34304084
2.100083,0.34324831
2.101364,0.3436734
2.102648,0.34397789
2.103932,0.3438594
2.105219,0.34409191
2.106506,0.34454961
2.107796,0.34487878
2.109087,0.34500136
2.110379,0.34488078
2.111673,0.34483105
2.112969,0.34482458
2.114266,0.34478194
2.115565,0.34504002
2.116865,0.34541681
2.118167,0.3455908
2.119471,0.34552162
2.120776,0.34496168
2.122082,0.34441939
2.123391,0.34457217
2.1247,0.34461917
2.126012,0.34422933
2.127325,0.34398566
2.12864,0.34371858
2.129956,0.34390981
2.131274,0.34484441
2.132593,0.34551054
2.133914,0.34551591
2.135237,0.3452233
2.136561,0.34507293
2.137887,0.34526395
2.139214,0.34544516
2.140544,0.34557706
2.141874,0.34590664
2.143207,0.34605142
2.144541,0.34594909
2.145876,0.34592996
2.147214,0.34598034
2.148553,0.34587838
2.149893,0.34557134
2.151235,0.34525135
2.152579,0.34501551
2.153925,0.34498369
2.155272,0.34501704
2.156621,0.34490625
2.157972,0.34493626
2.159324,0.34512084
2.160678,0.34496814
2.162033,0.34462195
2.16339,0.34447342
2.164749,0.34430321
2.16611,0.34408723
2.167472,0.34407583
2.168836,0.34408268
2.170202,0.34425255
2.171569,0.34460193
2.172938,0.34413378
2.174309,0.34307992
2.175682,0.34272018
2.177056,0.34314796
2.178432,0.34337526
2.179809,0.34285466
2.181189,0.3425054
2.18257,0.34259944
2.183952,0.34243383
2.185337,0.34215847
2.186723,0.34205745
2.188111,0.34223297
2.189501,0.34246132
2.190892,0.34247
2.192285,0.34221696
2.19368,0.34156225
2.195077,0.34095882
2.196476,0.34100944
2.197876,0.34109498
2.199278,0.34077106
2.200682,0.3408578
2.202087,0.34107132
2.203494,0.34068195
2.204903,0.34012378
2.206314,0.33984658
2.207727,0.33966539
2.209141,0.33931804
2.210557,0.33904652
2.211975,0.33894151
2.213395,0.33890811
2.214817,0.33863839
2.21624,0.33844107
2.217665,0.33877326
2.219092,0.33863518
2.220521,0.33788088
2.221952,0.33731828
2.223384,0.33711512
2.224818,0.33703669
2.226254,0.3367862
2.227692,0.33643322
2.229132,0.33618762
2.230574,0.33600101
2.232017,0.33585448
2.233462,0.33549408
2.23491,0.33469428
2.236359,0.33391896
2.237809,0.33341262
2.239262,0.33309812
2.240717,0.33276354
2.242173,0.33226522
2.243631,0.33181143
2.245092,0.33174679
2.246554,0.33179684
2.248017,0.33154742
2.249483,0.33104217
2.250951,0.33062358
2.252421,0.33036529
2.253892,0.32976789
2.255365,0.3292128
2.256841,0.32899354
2.258318,0.32865694
2.259797,0.32819131
2.261278,0.32772705
2.262761,0.32729004
2.264246,0.32682205
2.265732,0.32625063
2.267221,0.32565447
2.268712,0.32529016
2.270204,0.32517941
2.271699,0.3251822
2.273195,0.32532939
2.274694,0.3250238
2.276194,0.32398312
2.277696,0.32304313
2.279201,0.32270265
2.280707,0.32253071
2.282215,0.32198907
2.283725,0.32131988
2.285237,0.32058167
2.286752,0.31965512
2.288268,0.31898247
2.289786,0.31858772
2.291306,0.31807145
2.292828,0.3174484
2.294352,0.31699729
2.295878,0.31658904
2.297406,0.31604327
2.298936,0.3154008
2.300468,0.31460688
2.302002,0.31378601
2.303539,0.31302867
2.305077,0.31195609
2.306617,0.31060401
2.308159,0.30949417
2.309703,0.3083403
2.31125,0.30707237
2.312798,0.30599997
2.314348,0.30526656
2.315901,0.30500515
2.317455,0.30483233
2.319012,0.30465916
2.320571,0.30461546
2.322131,0.30491827
2.323694,0.3057723
2.325259,0.30680933
2.326826,0.30783688
2.328395,0.30863472
2.329966,0.30909315
2.33154,0.30927871
2.333115,0.30923551
2.334692,0.30953985
2.336272,0.31025682
2.337854,0.31090374
2.339437,0.3116325
2.341023,0.31268638
2.342611,0.31400718
2.344201,0.31563704
2.345794,0.3171825
2.347388,0.31816862
2.348985,0.31881477
2.350583,0.31945326
2.352184,0.320107
2.353787,0.32056651
2.355393,0.32085808
2.357,0.32102706
2.358609,0.32095182
2.360221,0.32068828
2.361835,0.32043178
2.363451,0.32027837
2.365069,0.31988372
2.36669,0.31925395
2.368312,0.31870628
2.369937,0.31815942
2.371564,0.31748916
2.373194,0.31666838
2.374825,0.31595546
2.376459,0.31550159
2.378095,0.31496394
2.379733,0.31408413
2.381373,0.31341639
2.383016,0.31336461
2.384661,0.31328936
2.386308,0.31297676
2.387957,0.31289961
2.389609,0.31291995
2.391263,0.31258544
2.392919,0.31218474
2.394577,0.31197308
2.396238,0.31169046
2.397901,0.31161993
2.399566,0.3117634
2.401233,0.31161247
2.402903,0.31130359
2.404575,0.31102734
2.40625,0.31081724
2.407926,0.31072319
2.409606,0.31052966
2.411287,0.31000006
2.412971,0.30951568
2.414657,0.30934491
2.416345,0.30884749
2.418036,0.30784332
2.419729,0.30688898
2.421424,0.30611468
2.423122,0.30542813
2.424822,0.30490259
2.426524,0.30435913
2.428229,0.30370364
2.429936,0.30304466
2.431646,0.3024471
2.433358,0.30220608
2.435072,0.30218184
2.436789,0.30174992
2.438508,0.30097551
2.440229,0.30030682
2.441953,0.29991284
2.443679,0.29953973
2.445408,0.29885031
2.447139,0.29824303
2.448873,0.29782627
2.450609,0.29733099
2.452347,0.29694141
2.454088,0.29665789
2.455831,0.29630708
2.457577,0.29585543
2.459325,0.29535981
2.461076,0.29483142
2.462829,0.29415384
2.464585,0.29350337
2.466343,0.29311802
2.468104,0.29267603
2.469867,0.29205942
2.471632,0.29164752
2.4734,0.29144226
2.475171,0.29095355
2.476944,0.29031968
2.47872,0.29003654
2.480498,0.28974594
2.482278,0.28907396
2.484062,0.28837616
2.485847,0.2877702
2.487636,0.28721021
2.489427,0.28661756
2.49122,0.28576631
2.493016,0.28488913
2.494814,0.28426507
2.496615,0.283804
2.498419,0.28330503
2.500225,0.28284982
2.502034,0.28255375
2.503845,0.28244419
2.505659,0.2825123
2.507476,0.28250173
2.509295,0.28252206
2.511117,0.28273001
2.512942,0.28285964
2.514769,0.28290061
2.516598,0.28321704
2.518431,0.28392404
2.520266,0.28462365
2.522103,0.28523957
2.523944,0.28590779
2.525787,0.28635417
2.527632,0.2868217
2.52948,0.28781005
2.531331,0.28932645
2.533185,0.29068566
2.535041,0.29157908
2.5369,0.29170886
2.538762,0.29107995
2.540627,0.291542
2.542494,0.29293089
2.544364,0.2928198
2.546236,0.292267
2.548112,0.2922916
2.54999,0.29228112
2.55187,0.29265577
2.553754,0.2922375
2.55564,0.29105389
2.557529,0.29085012
2.559421,0.29264813
2.561316,0.29621197
2.563213,0.29749615
2.565113,0.2949862
2.567016,0.29296806
2.568922,0.29322382
2.570831,0.29381056
2.572742,0.29454477
2.574656,0.2955747
2.576573,0.2952317
2.578493,0.29390264
2.580416,0.29371174
2.582342,0.29596792
2.58427,0.29738807
2.586201,0.2968171
2.588135,0.2963239
2.590072,0.29473541
2.592012,0.2950902
2.593955,0.30190159
2.5959,0.3032239
2.597849,0.29560008
2.5998,0.29263485
2.601755,0.29403479
2.603712,0.29712297
2.605672,0.29884562
2.607635,0.29619286
2.609601,0.29306165
2.61157,0.29149925
2.613542,0.29124815
2.615517,0.29343866
2.617495,0.29570926
2.619475,0.29488934
2.621459,0.29175496
2.623446,0.28839867
2.625435,0.28832109
2.627428,0.29023709
2.629424,0.29165561
2.631423,0.29139578
2.633424,0.28797443
2.635429,0.28451587
2.637437,0.28213578
2.639447,0.28101239
2.641461,0.28066902
2.643478,0.28024975
2.645498,0.27982018
2.647521,0.27795318
2.649547,0.27577431
2.651576,0.2755177
2.653609,0.27540835
2.655644,0.27325279
2.657682,0.27099147
2.659724,0.27015974
2.661768,0.26905231
2.663816,0.2699659
2.665867,0.27327939
2.667921,0.27149604
2.669978,0.26783361
2.672038,0.25908334
2.674102,0.2504954
2.676168,0.24790261
2.678238,0.23966669
2.680311,0.22269867
2.682387,0.20948138
2.684467,0.19764768
2.686549,0.18207075
2.688635,0.16250639
2.690724,0.14450534
2.692816,0.13233785
2.694911,0.11782024
2.69701,0.0986587
2.699112,0.0866086
2.701217,0.08008989
2.703325,0.07420859
2.705437,0.07067444
2.707552,0.07188077
2.70967,0.07651184
2.711791,0.07571205
2.713916,0.06968149
2.716044,0.06733819
2.718175,0.0722404
2.72031,0.08182589
2.722448,0.08432972
2.724589,0.08184776
2.726734,0.07715814
2.728882,0.07283668
2.731034,0.07138413
2.733188,0.07102674
2.735347,0.06969096
2.737508,0.06831336
2.739673,0.07008697
2.741841,0.06908718
2.744013,0.06440029
2.746188,0.06264621
2.748367,0.06263128
2.750549,0.06289803
2.752734,0.06386294
2.754923,0.06537845
2.757115,0.06439329
2.759311,0.06240267
2.76151,0.06221384
2.763713,0.06237905
2.765919,0.06171371
2.768129,0.06119151
2.770342,0.06112808
2.772559,0.06052495
2.774779,0.0595116
2.777003,0.05887602
2.77923,0.05848045
2.781461,0.05819926
2.783696,0.05768143
2.785934,0.05721686
2.788175,0.05695708
2.79042,0.0561318
2.792669,0.05526352
2.794922,0.05460036
2.797178,0.05391692
2.799437,0.05350534
2.8017,0.0536142
2.803967,0.05355088
2.806238,0.05293662
2.808512,0.05242752
2.810789,0.05182981
2.813071,0.0511365
2.815356,0.05037476
2.817645,0.04984301
2.819937,0.04951709
2.822233,0.04900378
2.824533,0.048539
2.826837,0.04837993
2.829144,0.04802017
2.831455,0.04728284
2.83377,0.04691751
2.836089,0.04667239
2.838411,0.04588032
2.840737,0.0449064
2.843067,0.04445481
2.845401,0.04438736
2.847739,0.0439423
2.85008,0.04333136
2.852425,0.04301209
2.854774,0.04262461
2.857127,0.04207068
2.859484,0.0417204
2.861844,0.041569
2.864209,0.04153821
2.866577,0.04149539
2.868949,0.04104916
2.871325,0.04056495
2.873705,0.04028597
2.876089,0.03975965
2.878477,0.03939804
2.880869,0.03917761
2.883265,0.03841968
2.885664,0.03776192
2.888068,0.03819709
2.890476,0.03867523
2.892887,0.03803333
2.895303,0.03729574
2.897723,0.03682789
2.900146,0.03626768
2.902574,0.03606242
2.905006,0.03602745
2.907441,0.03574631
2.909881,0.03539474
2.912325,0.0351227
2.914773,0.03535141
2.917225,0.03595875
2.919681,0.03596451
2.922142,0.03534716
2.924606,0.03426459
2.927075,0.03351013
2.929547,0.03364091
2.932024,0.03367986
2.934505,0.03369503
2.93699,0.03415944
2.939479,0.03426302
2.941973,0.0336212
2.944471,0.03380554
2.946973,0.03540506
2.949479,0.03566596
2.951989,0.03444902
2.954504,0.03474232
2.957023,0.03497185
2.959546,0.03364923
2.962073,0.03282522
2.964605,0.03295486
2.967141,0.03327973
2.969681,0.0332038
2.972226,0.03370031
2.974775,0.03536129
2.977328,0.03559164
2.979886,0.0342802
2.982448,0.03359685
2.985015,0.03333372
2.987586,0.03313217
2.990161,0.03385417
2.99274,0.03479668
2.995324,0.03444389
2.997913,0.03431449
3.000506,0.03532439
3.003103,0.03574643
3.005705,0.03493115
3.008312,0.03417966
3.010922,0.03445195
3.013538,0.03528095
3.016158,0.03550172
3.018782,0.03501976
3.021411,0.03492199
3.024044,0.03517489
3.026683,0.03575642
3.029325,0.03741948
3.031972,0.0395435
3.034624,0.03943203
3.037281,0.03747601
3.039942,0.03697098
3.042607,0.038095
3.045278,0.03877781
3.047953,0.03807835
3.050632,0.03737914
3.053317,0.037384
3.056006,0.0373004
3.0587,0.03741073
3.061398,0.03825209
3.064101,0.03955815
3.066809,0.03980548
3.069522,0.03865684
3.072239,0.03791053
3.074962,0.03802764
3.077689,0.038609
3.080421,0.03905961
3.083157,0.03904566
3.085899,0.03951436
3.088645,0.04000673
3.091396,0.03955381
3.094153,0.03914682
3.096914,0.03961999
3.099679,0.04093044
3.10245,0.04145677
3.105226,0.04053294
3.108007,0.03983163
3.110792,0.03982919
3.113583,0.04006365
3.116378,0.04024351
3.119179,0.0404978
3.121985,0.04067947
3.124795,0.04051811
3.127611,0.04056621
3.130431,0.04099187
3.133257,0.04132879
3.136088,0.04154871
3.138924,0.04178266
3.141765,0.04206544
3.144611,0.042521
3.147462,0.04301379
3.150319,0.04334268
3.15318,0.04359045
3.156047,0.04387533
3.158919,0.04424999
3.161796,0.04468338
3.164678,0.0448985
3.167566,0.04496577
3.170458,0.04529042
3.173356,0.04581933
3.17626,0.04657609
3.179168,0.04842463
3.182082,0.04983899
3.185001,0.04904053
3.187926,0.0481261
3.190856,0.04871276
3.193791,0.05017446
3.196731,0.05050032
3.199677,0.04974461
3.202629,0.05009054
3.205585,0.05087201
3.208548,0.0510238
3.211515,0.05256633
3.214488,0.05573289
3.217467,0.05728062
3.220451,0.05598793
3.223441,0.05481704
3.226436,0.0551511
3.229437,0.0549058
3.232443,0.05494676
3.235455,0.05588948
3.238472,0.05596039
3.241495,0.05622056
3.244523,0.05755358
3.247558,0.05865065
3.250598,0.0596313
3.253643,0.06082422
3.256694,0.06131142
3.259751,0.05945193
3.262814,0.05591857
3.265882,0.0544502
3.268956,0.05527844
3.272036,0.05522729
3.275122,0.05412286
3.278213,0.0541098
3.28131,0.05516458
3.284413,0.05645939
3.287522,0.05745576
3.290637,0.05797661
3.293757,0.05941158
3.296884,0.06080787
3.300016,0.06008166
3.303155,0.05954923
3.306299,0.06026105
3.309449,0.05995651
3.312605,0.05946071
3.315767,0.06009572
3.318936,0.06071278
3.32211,0.06152877
3.32529,0.06352911
3.328476,0.06557612
3.331669,0.06524898
3.334867,0.06318424
3.338072,0.06237547
3.341282,0.06302036
3.344499,0.06411893
3.347722,0.06514213
3.350952,0.06586796
3.354187,0.06546629
3.357429,0.0640339
3.360677,0.06391907
3.363931,0.06535347
3.367191,0.06596688
3.370458,0.0655578
3.373731,0.06528896
3.37701,0.06477068
3.380296,0.06443604
3.383588,0.06490261
3.386886,0.0654935
3.390191,0.06564324
3.393502,0.06605886
3.39682,0.06685013
3.400144,0.06696231
3.403475,0.06725283
3.406812,0.06717514
3.410156,0.06499716
3.413506,0.06271957
3.416862,0.06189114
3.420226,0.06235682
3.423596,0.06384885
3.426972,0.0646645
3.430355,0.0648275
3.433745,0.06583891
3.437141,0.06810392
3.440545,0.07137807
3.443954,0.07332909
3.447371,0.07273294
3.450794,0.07243704
3.454224,0.07359448
3.457661,0.07494098
3.461105,0.07678548
3.464556,0.0788298
3.468013,0.079881
3.471477,0.08075666
3.474948,0.08216684
3.478426,0.08388832
3.481911,0.08599326
3.485403,0.08867576
3.488902,0.09295115
3.492408,0.0968985
3.495921,0.09822867
3.499441,0.09927835
3.502968,0.1013508
3.506502,0.103882
3.510043,0.10610853
3.513592,0.10771821
3.517147,0.10963965
3.52071,0.11192209
3.52428,0.11367502
3.527857,0.11486155
3.531441,0.11746635
3.535032,0.12057675
3.538631,0.12160167
3.542237,0.12205218
3.545851,0.12307048
3.549471,0.1241824
3.553099,0.12538343
3.556735,0.12654439
3.560378,0.12762779
3.564028,0.12865428
3.567686,0.13019412
3.571351,0.13181641
3.575024,0.13256172
3.578704,0.13331468
3.582392,0.13494904
3.586088,0.13653261
3.589791,0.13715894
3.593501,0.13809982
3.59722,0.13939984
3.600946,0.13948734
3.604679,0.13937946
3.608421,0.14002064
3.61217,0.14129561
3.615926,0.14287935
3.619691,0.14352819
3.623463,0.1436782
3.627244,0.14415805
3.631032,0.14477595
3.634828,0.14557234
3.638632,0.14627114
3.642444,0.14669191
3.646263,0.14734223
3.650091,0.14840288
3.653927,0.14885934
3.657771,0.14845952
3.661623,0.14836305
3.665483,0.14832881
3.669351,0.14755317
3.673227,0.14673092
3.677111,0.14670976
3.681004,0.14697929
3.684905,0.1464854
3.688814,0.14566916
3.692731,0.14551019
3.696656,0.1459887
3.70059,0.14682009
3.704532,0.14761724
3.708483,0.14783444
3.712442,0.14756964
3.716409,0.14726558
3.720385,0.14671472
3.72437,0.14555026
3.728362,0.14411584
3.732364,0.14248939
3.736374,0.14059667
3.740392,0.13922347
3.744419,0.13821479
3.748455,0.13648372
3.752499,0.1340779
3.756553,0.13164962
3.760614,0.12959233
3.764685,0.12776923
3.768764,0.12584098
3.772853,0.12382924
3.77695,0.12170767
3.781056,0.11963734
3.78517,0.11800712
3.789294,0.1169029
3.793427,0.11617172
3.797568,0.11579411
3.801719,0.11588621
3.805879,0.11629568
3.810048,0.11653705
3.814225,0.11657588
3.818412,0.11682163
3.822609,0.11701636
3.826814,0.116917
3.831029,0.1167477
3.835252,0.11635739
3.839486,0.11566931
3.843728,0.11470593
3.84798,0.11347379
3.852241,0.11240433
3.856512,0.11161687
3.860792,0.11084512
3.865081,0.11014464
3.86938,0.10951083
3.873689,0.10901092
3.878007,0.10868949
3.882334,0.10810469
3.886672,0.1071584
3.891019,0.10620566
3.895375,0.10525206
3.899742,0.10406795
3.904118,0.1027963
3.908504,0.10180518
3.9129,0.10109086
3.917305,0.10042058
3.921721,0.09986825
3.926146,0.09959558
3.930581,0.09949455
3.935027,0.09964126
3.939482,0.1002939
3.943948,0.10160674
3.948423,0.10348251
3.952909,0.10580924
3.957405,0.10907095
3.961911,0.11364828
3.966427,0.11939195
3.970954,0.1262907
3.975491,0.13409357
3.980038,0.14190046
3.984595,0.14907379
3.989163,0.15576398
3.993742,0.16229084
3.99833,0.16852935
4.00293,0.17437868
4.00754,0.17985703
4.01216,0.18481299
4.016791,0.18919098
4.021433,0.19313843
4.026086,0.19677902
4.030749,0.20012278
4.035423,0.20318697
4.040108,0.20583892
4.044804,0.20827422
4.04951,0.21062175
4.054228,0.21267494
4.058956,0.21456149
4.063695,0.21637025
4.068446,0.21807004
4.073207,0.21962033
4.07798,0.22111191
4.082764,0.2225393
4.087559,0.22375086
4.092365,0.22502126
4.097183,0.22645241
4.102012,0.22759112
4.106852,0.22856834
4.111703,0.2297495
4.116566,0.23101472
4.121441,0.23223286
4.126327,0.23329718
4.131224,0.23441927
4.136133,0.23575018
4.141054,0.23702025
4.145987,0.23809247
4.150931,0.23917211
4.155887,0.24046502
4.160854,0.24178873
4.165834,0.24296847
4.170826,0.24413564
4.175829,0.24538347
4.180844,0.24659791
4.185872,0.24795189
4.190911,0.24996774
4.195963,0.2533094
4.201026,0.25904268
4.206102,0.26791071
4.21119,0.27912534
4.216291,0.29130862
4.221404,0.30352937
4.226529,0.31485385
4.231666,0.32429194
4.236816,0.32991903
4.241979,0.32992039
4.247154,0.32395246
4.252341,0.30992473
4.257542,0.29916523
4.262754,0.30386005
4.26798,0.3167477
4.273219,0.32236825
4.27847,0.32268522
4.283734,0.32271631
4.289011,0.32356988
4.294301,0.32315706
4.299604,0.32098467
4.30492,0.31953752
4.31025,0.31691135
4.315592,0.31229931
4.320948,0.30868795
4.326317,0.30629923
4.331699,0.30372829
4.337095,0.30123757
4.342504,0.29942574
4.347926,0.29843921
4.353362,0.29808049
4.358811,0.29809956
4.364275,0.29829156
4.369751,0.29858291
4.375242,0.29906947
4.380746,0.29989146
4.386264,0.30132979
4.391796,0.30316365
4.397342,0.30482785
4.402902,0.30637073
4.408476,0.30806008
4.414064,0.30981707
4.419666,0.3114842
4.425282,0.31310399
4.430913,0.31469076
4.436558,0.31623317
4.442217,0.31778491
4.447891,0.31936593
4.453579,0.32102797
4.459281,0.32267982
4.464998,0.32432656
4.47073,0.32599216
4.476477,0.32744545
4.482238,0.32880757
4.488014,0.33033368
4.493805,0.33193895
4.499611,0.3334691
4.505431,0.33504764
4.511267,0.33667655
4.517118,0.33825591
4.522984,0.33994342
4.528865,0.34146767
4.534762,0.34269814
4.540674,0.3440516
4.546601,0.34557588
4.552543,0.34706557
4.558502,0.34854469
4.564475,0.35005263
4.570465,0.35150207
4.57647,0.35302632
4.582491,0.35475839
4.588527,0.35667492
4.59458,0.35877023
4.600648,0.36097289
4.606732,0.36334166
4.612833,0.36578367
4.618949,0.36825519
4.625082,0.37089504
4.631231,0.37358964
4.637397,0.37633224
4.643578,0.37909578
4.649777,0.38166333
4.655991,0.38406254
4.662223,0.38637562
4.668471,0.38879221
4.674735,0.39154026
4.681017,0.39406991
4.687315,0.39613997
4.69363,0.39824935
4.699962,0.40046268
4.706312,0.40274022
4.712678,0.40507947
4.719062,0.40752683
4.725463,0.41003127
4.731881,0.41221986
4.738316,0.4141611
4.744769,0.41617023
4.75124,0.41834268
4.757728,0.42057381
4.764234,0.42268833
4.770758,0.42457857
4.777299,0.42672812
4.783859,0.42947715
4.790436,0.43184654
4.797032,0.43352608
4.803645,0.43532514
4.810277,0.43748074
4.816927,0.43949701
4.823596,0.44119242
4.830283,0.44305038
4.836988,0.44580701
4.843712,0.44839173
4.850455,0.44946508
4.857216,0.45047539
4.863996,0.45214893
4.870795,0.45390018
4.877613,0.45559958
4.884451,0.45728732
4.891307,0.45966528
4.898182,0.46222947
4.905077,0.46345804
4.911991,0.46446776
4.918925,0.46627266
4.925878,0.46818924
4.932851,0.47017771
4.939844,0.472119
4.946856,0.47461672
4.953888,0.47822049
4.960941,0.47992671
4.968013,0.47956195
4.975105,0.48050319
4.982218,0.48226297
4.989351,0.48371017
4.996504,0.48542072
5.003678,0.48706654
5.010872,0.49041249
5.018087,0.49581431
5.025323,0.49726801
5.03258,0.4953641
5.039857,0.49506143
5.047156,0.49609126
5.054475,0.49765041
5.061816,0.4995785
5.069179,0.50184888
5.076562,0.50649856
5.083967,0.51078193
5.091394,0.51050507
5.098842,0.5103813
5.106312,0.51249574
5.113804,0.51448514
5.121318,0.51592786
5.128854,0.5176375
5.136412,0.52233634
5.143992,0.52976776
5.151595,0.53032195
5.15922,0.52573132
5.166868,0.52571808
5.174538,0.52777326
5.182231,0.52879387
5.189947,0.53249793
5.197686,0.53929964
5.205448,0.54467638
5.213233,0.54627123
5.221041,0.54205348
5.228873,0.5410705
5.236728,0.54511263
5.244607,0.54501586
5.25251,0.54417568
5.260436,0.54567715
5.268386,0.54942719
5.27636,0.55338777
5.284358,0.55776385
5.292381,0.5613937
5.300428,0.55866898
5.308499,0.55616562
5.316595,0.55711524
5.324715,0.55806108
5.33286,0.55932752
5.341031,0.57000814
5.349226,0.58509791
5.357446,0.57934318
5.365692,0.56722239
5.373962,0.56585934
5.382259,0.5663421
5.390581,0.56597738
5.398928,0.5679224
5.407302,0.57613036
5.415701,0.59293722
5.424127,0.59791628
5.432579,0.58429521
5.441057,0.57897831
5.449561,0.58332176
5.458092,0.59513524
5.46665,0.60819816
5.475234,0.60650722
5.483846,0.5979225
5.492484,0.58944078
5.50115,0.58840835
5.509843,0.59242922
5.518564,0.5999942
5.527312,0.60195174
5.536087,0.59727056
5.544891,0.60892259
5.553723,0.61134646
5.562582,0.57167596
5.57147,0.51924648
5.580387,0.54651637
5.589332,0.58884639
5.598305,0.59869127
5.607307,0.60361008
5.616339,0.60806137
5.625399,0.61457019
5.634489,0.62939158
5.643607,0.63820621
5.652756,0.62977311
5.661934,0.6238066
5.671142,0.62943168
5.680379,0.63483162
5.689647,0.63487579
5.698945,0.64015892
5.708274,0.65575599
5.717633,0.6615434
5.727022,0.65495641
5.736443,0.65642556
5.745894,0.66002185
5.755377,0.668839
5.76489,0.6832138
5.774436,0.67418169
5.784012,0.65833274
5.793621,0.65492688
5.803262,0.66295201
5.812934,0.68798527
5.822639,0.70763244
5.832376,0.69182757
5.842146,0.67771731
5.851948,0.68544276
5.861783,0.70072974
5.871652,0.71840836
5.881553,0.73527349
5.891488,0.72757629
5.901457,0.70470311
5.911459,0.69653249
5.921495,0.71141191
5.931565,0.73779169
5.94167,0.73212478
5.951809,0.71316139
5.961982,0.71707586
5.97219,0.72642439
5.982433,0.73161837
5.992711,0.72419437
6.003025,0.71623572
6.013374,0.71735696
6.023759,0.7135657
6.034179,0.7338611
6.044636,0.76779421
6.055129,0.76125947
6.065658,0.75630368
6.076224,0.74564915
6.086826,0.72746918
6.097466,0.73953745
6.108143,0.76199241
6.118857,0.74918632
6.129609,0.7353628
6.140398,0.74294661
6.151226,0.75156256
6.162091,0.74986785
6.172996,0.75313178
6.183938,0.75773062
6.19492,0.74780243
6.20594,0.74396882
6.217,0.74588031
6.228099,0.74584295
6.239237,0.74605405
6.250416,0.74604565
6.261635,0.74848084
6.272893,0.74996718
6.284193,0.74934442
6.295533,0.74945696
6.306914,0.75033469
6.318336,0.75347839
6.329799,0.76751481
6.341304,0.77758374
6.352851,0.77338276
6.36444,0.77744306
6.376071,0.77705228
6.387745,0.77498281
6.399461,0.79945834
6.411221,0.82637857
6.423023,0.80748324
6.434869,0.78865594
6.446759,0.78488956
6.458693,0.78988224
6.470671,0.81149449
6.482693,0.83434129
6.49476,0.82132672
6.506872,0.80593548
6.519029,0.8042151
6.531231,0.80172001
6.54348,0.80881649
6.555774,0.82343287
6.568114,0.8317298
6.580501,0.82909648
6.592934,0.81989551
6.605415,0.81674034
6.617943,0.83520733
6.630518,0.84942961
6.643141,0.82330157
6.655812,0.81086598
6.668532,0.82002379
6.6813,0.81778516
6.694117,0.81807583
6.706983,0.82907669
6.719899,0.82256425
6.732864,0.81057431
6.745879,0.81010326
6.758945,0.81810411
6.772062,0.83437624
6.785229,0.83849535
6.798448,0.82397281
6.811718,0.82165676
6.825039,0.82481719
6.838413,0.8314294
6.85184,0.85026933
6.865319,0.84494085
6.878851,0.82792156
6.892437,0.82709779
6.906076,0.82731517
6.919769,0.82289394
6.933517,0.82615498
6.947319,0.83897544
6.961176,0.84189846
6.975089,0.83737579
6.989057,0.83756943
7.003081,0.83780378
7.017161,0.84141726
7.031298,0.85151206
7.045492,0.85367438
7.059743,0.84406033
7.074052,0.83983649
7.088419,0.84199762
7.102845,0.84559814
7.117329,0.84812859
7.131872,0.85263642
7.146475,0.86061428
7.161137,0.86111882
7.17586,0.85578263
7.190643,0.85763942
7.205487,0.86001225
7.220393,0.85690264
7.23536,0.85729794
7.25039,0.86231232
7.265481,0.86714117
7.280636,0.86658502
7.295854,0.86439464
7.311135,0.86743895
7.326481,0.87350942
7.341891,0.87311634
7.357366,0.86944143
7.372906,0.86966211
7.388512,0.87077391
7.404184,0.87174336
7.419922,0.87265376
7.435728,0.87637516
7.451601,0.88301345
7.467541,0.88380296
7.48355,0.88006428
7.499628,0.87931672
7.515774,0.88058785
7.53199,0.88181761
7.548277,0.88372026
7.564633,0.88651082
7.581061,0.88839263
7.59756,0.88892697
7.614131,0.88879435
7.630774,0.88860771
7.647491,0.8890192
7.66428,0.88978596
7.681143,0.89078008
7.69808,0.89183713
7.715093,0.89278042
7.73218,0.89384533
7.749343,0.89493354
7.766583,0.89557536
7.783899,0.89624877
7.801292,0.89716948
7.818764,0.89794011
7.836313,0.89920967
7.853942,0.90094329
7.871649,0.90201648
7.889437,0.90268493
7.907305,0.90386921
7.925254,0.90522871
7.943285,0.90604441
7.961398,0.90669639
7.979594,0.90751142
7.997872,0.90834066
8.016235,0.9094823
8.034682,0.91077542
8.053214,0.91161559
8.071832,0.91234516
8.090535,0.91344065
8.109326,0.91442926
8.128204,0.91515631
8.147169,0.91594432
8.166224,0.91674708
8.185368,0.9176589
8.204601,0.91865275
8.223925,0.91942879
8.24334,0.92002359
8.262847,0.92060878
8.282446,0.9212974
8.302139,0.92213314
8.321925,0.92298804
8.341805,0.92379854
8.361781,0.92455051
8.381852,0.92528177
8.40202,0.92612197
8.422285,0.92689421
8.442648,0.92746966
8.463109,0.92807841
8.48367,0.92882997
8.504331,0.92951141
8.525092,0.93004027
8.545955,0.93060572
8.566921,0.93120477
8.587989,0.93171726
8.609161,0.93218299
8.630437,0.93269548
8.651819,0.93321714
8.673307,0.93361607
8.694902,0.93411096
8.716604,0.93474893
8.738415,0.93531655
8.760335,0.93597232
8.782365,0.93666849
8.804507,0.93724192
8.82676,0.93785492
8.849125,0.93843923
8.871604,0.93897146
8.894198,0.93977934
8.916907,0.94071921
8.939732,0.941281
8.962673,0.94167878
8.985733,0.94226427
9.008912,0.94269491
9.03221,0.94287528
9.055629,0.94295866
9.07917,0.94298455
9.102833,0.94317931
9.12662,0.94344528
9.150531,0.94340008
9.174568,0.94322349
9.198731,0.94307692
9.223022,0.94283369
9.247441,0.94265695
9.27199,0.94262548
9.296669,0.94272582
9.32148,0.94293857
9.346423,0.9431869
9.3715,0.94344781
9.396712,0.94371371
9.42206,0.94400541
9.447545,0.94434926
9.473167,0.94476665
9.498929,0.94526131
9.524832,0.94585775
9.550876,0.94650149
9.577062,0.94698379
9.603393,0.9473809
9.629868,0.94781593
9.65649,0.94824579
9.683259,0.94864023
9.710176,0.94884994
9.737244,0.94899442
9.764463,0.94937319
9.791834,0.94988092
9.819359,0.95026855
9.847039,0.95059041
9.874875,0.95087774
9.902869,0.95110444
9.931022,0.95130032
9.959336,0.95153616
9.987811,0.95184956
10.016449,0.95224016
10.045252,0.95270919
10.074221,0.95315929
10.103357,0.95358193
10.132662,0.95406149
10.162137,0.95456199
10.191784,0.95492593
10.221604,0.95529041
10.2516,0.95589562
10.281771,0.95665913
10.312121,0.95731906
10.34265,0.95772552
10.37336,0.95805952
10.404253,0.95840436
10.435331,0.95865164
10.466594,0.95881171
10.498045,0.95907733
10.529686,0.95943117
10.561517,0.95953077
10.593542,0.95955267
10.625761,0.95969335
10.658176,0.95976676
10.69079,0.95988178
10.723604,0.96005588
10.756619,0.96022823
10.789839,0.96041521
10.823264,0.96058163
10.856896,0.96069976
10.890738,0.96063279
10.924791,0.96051347
10.959058,0.96069993
10.993541,0.96110843
11.02824,0.96125581
11.06316,0.96107045
11.098301,0.96093803
11.133665,0.96090569
11.169256,0.96084016
11.205075,0.96098422
11.241124,0.96140495
11.277405,0.96166832
11.313921,0.96161786
11.350675,0.96144576
11.387667,0.96138779
11.424901,0.96154708
11.46238,0.9617028
11.500105,0.96186388
11.538079,0.96215062
11.576304,0.96229824
11.614783,0.9621603
11.653518,0.96203304
11.692513,0.96205481
11.731769,0.96213301
11.77129,0.9623039
11.811077,0.96262711
11.851134,0.96291491
11.891464,0.96305501
11.932068,0.96337635
11.972951,0.96377513
12.014114,0.96383962
12.055562,0.96383559
12.097296,0.96400292
12.13932,0.96406282
12.181636,0.96407201
12.224249,0.96411007
12.26716,0.96402178
12.310373,0.96399069
12.353892,0.96405007
12.397719,0.96417603
12.441859,0.96432062
12.486313,0.96430359
12.531086,0.964262
12.57618,0.96427532
12.621601,0.96418376
12.66735,0.96409075
12.713432,0.96414635
12.75985,0.96412738
12.806608,0.96408215
12.85371,0.96423737
12.901159,0.9645204
12.94896,0.96493442
12.997116,0.96523955
13.045631,0.96517918
13.09451,0.96507561
13.143756,0.9652394
13.193373,0.96546531
13.243366,0.96552102
13.29374,0.96565037
13.344497,0.96590936
13.395644,0.96607867
13.447183,0.96616317
13.499121,0.96622369
13.551461,0.9659648
13.604208,0.96573609
13.657367,0.96615645
13.710943,0.96641135
13.764941,0.96597138
13.819365,0.96539489
13.874221,0.96479579
13.929515,0.96411794
13.98525,0.96348754
14.041433,0.96277774
14.098068,0.96215505
14.155163,0.96142504
14.212721,0.96030735
14.270749,0.95952045
14.329252,0.9589747
14.388237,0.95798455
14.447709,0.95668439
14.507674,0.95513925
14.568139,0.95295336
14.629109,0.95045363
14.690592,0.94781998
14.752594,0.94385699
14.815121,0.93915635
14.878179,0.93620237
14.941777,0.93166922
15.00592,0.92202353
15.070616,0.91171775
15.135871,0.90106376
15.201695,0.88750923
15.268092,0.8696811
15.335072,0.84829048
15.402642,0.8233768
15.47081,0.79437907
15.539583,0.76021633
15.60897,0.7182718
15.678979,0.67587471
15.749619,0.63439566
15.820897,0.59110419
15.892824,0.55111944
15.965407,0.5126383
