Database of Origin,University of Winnipeg Spectrophotometer Facility
Sample Description,"HOSERLab master pyroxenes, FTIR data"
Date Added,2016-12-14 03:34:49.670931

Data ID,FTIR_PYX_06         
Sample ID,PYX032
Mineral Name,Orthopyroxene
Grain Size,45-90 um
Viewing Geometry,"i=30, e=0"
Material Class,Inosilicate

Wavelength
2000.56,0.16282073
2001.142,0.16271561
2001.725,0.16274891
2002.307,0.1628634
2002.891,0.16298897
2003.474,0.16316224
2004.058,0.16338019
2004.643,0.16352248
2005.227,0.16354027
2005.812,0.16354089
2006.397,0.16358711
2006.983,0.16360968
2007.569,0.16358574
2008.155,0.16359715
2008.742,0.1636584
2009.329,0.16369587
2009.916,0.16371508
2010.504,0.16377495
2011.092,0.16382002
2011.68,0.16375494
2012.269,0.16365101
2012.858,0.1636684
2013.447,0.16381142
2014.037,0.16394898
2014.627,0.16401932
2015.217,0.16404529
2015.808,0.16402685
2016.399,0.16397051
2016.99,0.16396907
2017.582,0.16412091
2018.174,0.1644012
2018.766,0.16469862
2019.359,0.16492799
2019.952,0.16504437
2020.546,0.16500162
2021.139,0.16479278
2021.733,0.16451767
2022.328,0.16434284
2022.923,0.1643653
2023.518,0.16454514
2024.113,0.1647801
2024.709,0.16499724
2025.305,0.16514821
2025.902,0.16520277
2026.499,0.16519385
2027.096,0.1651991
2027.693,0.16522908
2028.291,0.1652286
2028.89,0.1652098
2029.488,0.16525345
2030.087,0.16535416
2030.686,0.16541604
2031.286,0.16541076
2031.886,0.16541537
2032.486,0.16549204
2033.087,0.16563888
2033.688,0.16582699
2034.289,0.16599647
2034.891,0.16607485
2035.493,0.16607392
2036.096,0.16610383
2036.698,0.16623655
2037.302,0.16641578
2037.905,0.16654271
2038.509,0.16658362
2039.113,0.16657615
2039.718,0.16658259
2040.322,0.1666483
2040.928,0.16675794
2041.533,0.1668492
2042.139,0.16688257
2042.746,0.16686495
2043.352,0.1668192
2043.959,0.16678179
2044.567,0.16679559
2045.174,0.16687251
2045.782,0.167002
2046.391,0.16719491
2047.0,0.16743544
2047.609,0.16762327
2048.218,0.16767122
2048.828,0.1676333
2049.438,0.16761602
2050.049,0.16762084
2050.66,0.16760274
2051.271,0.1676084
2051.883,0.16772167
2052.495,0.16793781
2053.107,0.16819112
2053.72,0.16842967
2054.333,0.16859381
2054.947,0.16864385
2055.56,0.1686397
2056.175,0.16867951
2056.789,0.16876056
2057.404,0.16881582
2058.019,0.16884732
2058.635,0.16890552
2059.251,0.16899314
2059.867,0.16910072
2060.484,0.16926521
2061.101,0.16948771
2061.718,0.16966501
2062.336,0.1697031
2062.954,0.16964309
2063.573,0.16961394
2064.192,0.16970477
2064.811,0.16990864
2065.431,0.17013893
2066.051,0.17030661
2066.671,0.17040725
2067.292,0.17050233
2067.913,0.170604
2068.534,0.1706598
2069.156,0.17065479
2069.778,0.170642
2070.401,0.17066109
2071.024,0.17071387
2071.647,0.17081288
2072.271,0.17097723
2072.895,0.17119059
2073.519,0.17141725
2074.144,0.17162449
2074.769,0.17176595
2075.395,0.17181047
2076.02,0.17180861
2076.647,0.17184286
2077.273,0.17190584
2077.9,0.17192842
2078.528,0.17192322
2079.155,0.17198607
2079.784,0.17216514
2080.412,0.17242221
2081.041,0.17270458
2081.67,0.17296006
2082.3,0.17312141
2082.93,0.17316845
2083.56,0.17316768
2084.191,0.17318992
2084.822,0.17325079
2085.454,0.17336198
2086.085,0.17355464
2086.718,0.17381633
2087.35,0.17408869
2087.983,0.17434844
2088.617,0.17460647
2089.251,0.1748395
2089.885,0.1750005
2090.519,0.17506721
2091.154,0.175032
2091.789,0.17490174
2092.425,0.17475919
2093.061,0.17473844
2093.697,0.17488591
2094.334,0.17513106
2094.971,0.17540733
2095.609,0.17569754
2096.247,0.17596675
2096.885,0.17617133
2097.524,0.1763235
2098.163,0.17644178
2098.803,0.17649711
2099.443,0.17649763
2100.083,0.1765303
2100.723,0.1766289
2101.364,0.17671197
2102.006,0.17672164
2102.648,0.17669597
2103.29,0.17666868
2103.932,0.17664783
2104.575,0.17669196
2105.219,0.17684275
2105.862,0.17700019
2106.506,0.17703894
2107.151,0.17699811
2107.796,0.1769918
2108.441,0.17700512
2109.087,0.1769567
2109.733,0.1768775
2110.379,0.17686095
2111.026,0.17690511
2111.673,0.17695169
2112.321,0.17700845
2112.969,0.17711421
2113.617,0.17724737
2114.266,0.17737089
2114.915,0.17749988
2115.565,0.17766038
2116.215,0.17784522
2116.865,0.17807084
2117.516,0.17839281
2118.167,0.17878848
2118.819,0.17910903
2119.471,0.17924175
2120.123,0.17925452
2120.776,0.17928672
2121.429,0.17937365
2122.082,0.17949732
2122.736,0.17972136
2123.391,0.18010251
2124.045,0.18053988
2124.7,0.18089099
2125.356,0.18117358
2126.012,0.18148507
2126.668,0.18181937
2127.325,0.18214563
2127.982,0.18252102
2128.64,0.18294526
2129.297,0.18326009
2129.956,0.18336818
2130.614,0.18337502
2131.274,0.18338004
2131.933,0.18334894
2132.593,0.18331535
2133.253,0.18343498
2133.914,0.18371009
2134.575,0.18393481
2135.237,0.18401581
2135.899,0.1840823
2136.561,0.18422763
2137.224,0.18441229
2137.887,0.18464467
2138.55,0.18498604
2139.214,0.18538216
2139.879,0.1857153
2140.544,0.18598451
2141.209,0.18624671
2141.874,0.18646221
2142.54,0.18657302
2143.207,0.18664874
2143.873,0.18679746
2144.541,0.18701912
2145.208,0.18725533
2145.876,0.18750213
2146.545,0.18777607
2147.214,0.18804729
2147.883,0.18827176
2148.553,0.18844896
2149.223,0.18861017
2149.893,0.18878019
2150.564,0.18896794
2151.235,0.18918302
2151.907,0.1894338
2152.579,0.18970563
2153.252,0.18996884
2153.925,0.19023445
2154.598,0.19056158
2155.272,0.19096448
2155.946,0.19135677
2156.621,0.19165394
2157.296,0.19188193
2157.972,0.19211021
2158.647,0.19235707
2159.324,0.19263753
2160.001,0.19299779
2160.678,0.19340714
2161.355,0.19372499
2162.033,0.19387848
2162.712,0.19396913
2163.39,0.19412171
2164.07,0.19434447
2164.749,0.19460937
2165.429,0.1949268
2166.11,0.19527247
2166.791,0.19557462
2167.472,0.19583814
2168.154,0.19615268
2168.836,0.19654117
2169.519,0.1969267
2170.202,0.19727449
2170.885,0.19762356
2171.569,0.19795351
2172.254,0.19817328
2172.938,0.19828208
2173.624,0.19839231
2174.309,0.19857207
2174.995,0.19879766
2175.682,0.19905804
2176.368,0.19938263
2177.056,0.1997639
2177.743,0.20016169
2178.432,0.20056405
2179.12,0.20094266
2179.809,0.20119177
2180.499,0.20123232
2181.189,0.20115697
2181.879,0.20118161
2182.57,0.20145463
2183.261,0.20195355
2183.952,0.20253356
2184.644,0.20302952
2185.337,0.20334916
2186.03,0.20351018
2186.723,0.20360276
2187.417,0.20372288
2188.111,0.20392627
2188.806,0.2042024
2189.501,0.20449508
2190.196,0.20477361
2190.892,0.20505758
2191.589,0.20535899
2192.285,0.20566177
2192.983,0.20598344
2193.68,0.20636638
2194.379,0.20678101
2195.077,0.20714275
2195.776,0.20743188
2196.476,0.20768843
2197.175,0.2079119
2197.876,0.20810415
2198.577,0.20835643
2199.278,0.20874279
2199.979,0.20918697
2200.682,0.20958247
2201.384,0.20994999
2202.087,0.21033487
2202.79,0.21066697
2203.494,0.21088596
2204.199,0.21108198
2204.903,0.2113579
2205.609,0.21167012
2206.314,0.21194964
2207.02,0.21225315
2207.727,0.21264764
2208.434,0.21305475
2209.141,0.21335774
2209.849,0.2135862
2210.557,0.21386488
2211.266,0.2142457
2211.975,0.21470777
2212.685,0.21523576
2213.395,0.21576837
2214.106,0.21615921
2214.817,0.21633729
2215.528,0.21642925
2216.24,0.21659138
2216.952,0.21682503
2217.665,0.21709842
2218.379,0.21748773
2219.092,0.21801169
2219.806,0.21849175
2220.521,0.21878832
2221.236,0.21899853
2221.952,0.21922827
2222.668,0.21939746
2223.384,0.21947322
2224.101,0.21963373
2224.818,0.22000653
2225.536,0.22048659
2226.254,0.22095336
2226.973,0.22140428
2227.692,0.22179484
2228.412,0.22203363
2229.132,0.22219179
2229.853,0.22242889
2230.574,0.22271717
2231.295,0.22291504
2232.017,0.2230596
2232.74,0.22330478
2233.462,0.22364967
2234.186,0.22396346
2234.91,0.22420868
2235.634,0.2244456
2236.359,0.22470778
2237.084,0.22500214
2237.809,0.22535256
2238.536,0.22575681
2239.262,0.22616861
2239.989,0.22654145
2240.717,0.22685784
2241.445,0.22713429
2242.173,0.22741606
2242.902,0.2277179
2243.631,0.22800296
2244.361,0.22825268
2245.092,0.22848286
2245.822,0.22867205
2246.554,0.22880802
2247.285,0.2289958
2248.017,0.22934386
2248.75,0.22977466
2249.483,0.23015833
2250.217,0.23053953
2250.951,0.23099359
2251.686,0.23140765
2252.421,0.2316717
2253.156,0.231912
2253.892,0.23227485
2254.628,0.2326994
2255.365,0.23311907
2256.103,0.23360784
2256.841,0.23413815
2257.579,0.23450869
2258.318,0.23467787
2259.057,0.23485206
2259.797,0.23514515
2260.537,0.23547286
2261.278,0.23582181
2262.019,0.23628473
2262.761,0.23681024
2263.503,0.23722498
2264.246,0.23749503
2264.989,0.2377109
2265.732,0.23788211
2266.477,0.23799127
2267.221,0.23814654
2267.966,0.23845016
2268.712,0.2388238
2269.458,0.23914212
2270.204,0.23944028
2270.951,0.23982396
2271.699,0.24027939
2272.447,0.24070977
2273.195,0.24108212
2273.944,0.2414245
2274.694,0.2417479
2275.444,0.24206046
2276.194,0.24240709
2276.945,0.24280399
2277.696,0.24317678
2278.448,0.24345023
2279.201,0.24367458
2279.954,0.24397532
2280.707,0.24439181
2281.461,0.24484499
2282.215,0.24525073
2282.97,0.24557969
2283.725,0.2458259
2284.481,0.24601366
2285.237,0.24623339
2285.994,0.24657482
2286.752,0.24700819
2287.509,0.24741595
2288.268,0.24773965
2289.026,0.24802296
2289.786,0.24831398
2290.545,0.24861598
2291.306,0.24894138
2292.067,0.24933322
2292.828,0.24980053
2293.59,0.25028369
2294.352,0.25071814
2295.115,0.25109076
2295.878,0.25140883
2296.642,0.25166849
2297.406,0.25189589
2298.171,0.25215286
2298.936,0.25245736
2299.702,0.25275717
2300.468,0.25303061
2301.235,0.25333169
2302.002,0.25368278
2302.77,0.25402078
2303.539,0.25431596
2304.307,0.25464126
2305.077,0.25505734
2305.847,0.25552483
2306.617,0.25598636
2307.388,0.25643043
2308.159,0.25682702
2308.931,0.25711059
2309.703,0.25728422
2310.476,0.25744044
2311.25,0.25764291
2312.024,0.25787287
2312.798,0.2581248
2313.573,0.25843914
2314.348,0.25881763
2315.124,0.25918442
2315.901,0.2594804
2316.678,0.25972237
2317.455,0.25994109
2318.234,0.26013403
2319.012,0.26032714
2319.791,0.26059094
2320.571,0.26093389
2321.351,0.26125648
2322.131,0.26149505
2322.913,0.26173268
2323.694,0.26208277
2324.476,0.26255376
2325.259,0.26310244
2326.042,0.26370559
2326.826,0.26429161
2327.61,0.26474306
2328.395,0.26506143
2329.18,0.26539597
2329.966,0.26583061
2330.753,0.26628785
2331.54,0.26668971
2332.327,0.2670438
2333.115,0.26734771
2333.903,0.26757324
2334.692,0.26777585
2335.482,0.26806253
2336.272,0.2684504
2337.062,0.26887664
2337.854,0.26931743
2338.645,0.26978722
2339.437,0.27026366
2340.23,0.27070504
2341.023,0.27110722
2341.817,0.27148624
2342.611,0.27184024
2343.406,0.27216277
2344.201,0.27246872
2344.997,0.27279281
2345.794,0.27316412
2346.591,0.2735809
2347.388,0.2740394
2348.186,0.27457734
2348.985,0.27520343
2349.784,0.27578781
2350.583,0.27616725
2351.384,0.27636086
2352.184,0.27653686
2352.986,0.27678828
2353.787,0.27710967
2354.59,0.27751276
2355.393,0.27796244
2356.196,0.27831991
2357.0,0.27854496
2357.804,0.27881477
2358.609,0.27926168
2359.415,0.27978967
2360.221,0.28029127
2361.028,0.28078851
2361.835,0.28123831
2362.643,0.28150195
2363.451,0.2816165
2364.26,0.28179661
2365.069,0.28211599
2365.879,0.28246629
2366.69,0.28282089
2367.501,0.28324055
2368.312,0.28366892
2369.125,0.28399887
2369.937,0.28427505
2370.751,0.28459993
2371.564,0.28495798
2372.379,0.28530139
2373.194,0.28567215
2374.009,0.28609475
2374.825,0.28649739
2375.642,0.28684182
2376.459,0.28719253
2377.276,0.2875955
2378.095,0.28801291
2378.913,0.2883986
2379.733,0.28873585
2380.553,0.28901341
2381.373,0.28924615
2382.194,0.28949909
2383.016,0.28983763
2383.838,0.29027089
2384.661,0.29074743
2385.484,0.29118657
2386.308,0.29153498
2387.132,0.2918163
2387.957,0.29209278
2388.783,0.29238217
2389.609,0.29266669
2390.435,0.29295439
2391.263,0.2932555
2392.09,0.29353533
2392.919,0.29377407
2393.748,0.29402786
2394.577,0.29435245
2395.407,0.29472065
2396.238,0.29508584
2397.069,0.2954614
2397.901,0.29585524
2398.733,0.29621257
2399.566,0.29650418
2400.399,0.29679371
2401.233,0.29713735
2402.068,0.29750171
2402.903,0.29783828
2403.739,0.29816335
2404.575,0.29849816
2405.412,0.29882545
2406.25,0.29916092
2407.088,0.29956248
2407.926,0.30000767
2408.766,0.30037971
2409.606,0.30063941
2410.446,0.30088945
2411.287,0.30120141
2412.128,0.30152359
2412.971,0.30181753
2413.813,0.30213784
2414.657,0.30251241
2415.5,0.30289177
2416.345,0.30326184
2417.19,0.30366211
2418.036,0.30405622
2418.882,0.30434154
2419.729,0.30451621
2420.576,0.30468568
2421.424,0.30490337
2422.272,0.30513284
2423.122,0.3053601
2423.971,0.30561097
2424.822,0.30587859
2425.673,0.30614479
2426.524,0.30644913
2427.376,0.30683021
2428.229,0.30723121
2429.082,0.30756141
2429.936,0.30782457
2430.791,0.30809301
2431.646,0.30838157
2432.501,0.30865067
2433.358,0.30891782
2434.214,0.30925118
2435.072,0.30964026
2435.93,0.30998911
2436.789,0.31025124
2437.648,0.31047174
2438.508,0.31068209
2439.368,0.31088721
2440.229,0.31113957
2441.091,0.31149439
2441.953,0.3119031
2442.816,0.31228202
2443.679,0.31263631
2444.543,0.31299487
2445.408,0.31330958
2446.273,0.31355569
2447.139,0.31381339
2448.006,0.31412491
2448.873,0.31440382
2449.74,0.31458726
2450.609,0.31473505
2451.478,0.31491286
2452.347,0.31512714
2453.217,0.3153809
2454.088,0.31565254
2454.959,0.31585808
2455.831,0.31597542
2456.704,0.31611099
2457.577,0.31634009
2458.451,0.3166096
2459.325,0.31686922
2460.2,0.31712833
2461.076,0.31737422
2461.952,0.31761346
2462.829,0.31794323
2463.707,0.31840156
2464.585,0.31885504
2465.464,0.31919172
2466.343,0.31945468
2467.223,0.31968004
2468.104,0.31983634
2468.985,0.31999108
2469.867,0.32025823
2470.749,0.32057622
2471.632,0.32081109
2472.516,0.32100146
2473.4,0.32123108
2474.285,0.32144059
2475.171,0.3216105
2476.057,0.32186891
2476.944,0.32220364
2477.832,0.32239015
2478.72,0.32237745
2479.608,0.32239362
2480.498,0.32257384
2481.388,0.3228419
2482.278,0.3231691
2483.17,0.32357464
2484.062,0.32394583
2484.954,0.32419934
2485.847,0.32446393
2486.741,0.32482431
2487.636,0.32513727
2488.531,0.32531579
2489.427,0.32548285
2490.323,0.3256793
2491.22,0.32578456
2492.118,0.32582704
2493.016,0.32599912
2493.915,0.32632694
2494.814,0.326667
2495.715,0.32697726
2496.615,0.3272677
2497.517,0.32743805
2498.419,0.32747248
2499.322,0.32758496
2500.225,0.32790477
2501.129,0.32826762
2502.034,0.32851755
2502.939,0.32871336
2503.845,0.32888562
2504.752,0.32894818
2505.659,0.32896422
2506.567,0.329129
2507.476,0.32941359
2508.385,0.32961199
2509.295,0.3297367
2510.206,0.32997065
2511.117,0.3302779
2512.029,0.33048703
2512.942,0.33065258
2513.855,0.3309151
2514.769,0.33116706
2515.683,0.3312957
2516.598,0.33148719
2517.514,0.33187252
2518.431,0.33220794
2519.348,0.33233759
2520.266,0.33252007
2521.184,0.33289222
2522.103,0.33313783
2523.023,0.33309133
2523.944,0.33306017
2524.865,0.33318893
2525.787,0.33321723
2526.709,0.33316776
2527.632,0.33344469
2528.556,0.33405239
2529.48,0.33453322
2530.406,0.33479705
2531.331,0.33514988
2532.258,0.33552483
2533.185,0.33561215
2534.113,0.3356085
2535.041,0.33583385
2535.971,0.33599176
2536.9,0.33575217
2537.831,0.33556824
2538.762,0.3359283
2539.694,0.33650519
2540.627,0.33682305
2541.56,0.3370592
2542.494,0.33743534
2543.428,0.3376245
2544.364,0.33753069
2545.3,0.33768259
2546.236,0.33821837
2547.174,0.33854657
2548.112,0.33849279
2549.05,0.33867329
2549.99,0.33925665
2550.93,0.33957185
2551.87,0.33937173
2552.812,0.33924943
2553.754,0.33937173
2554.697,0.33921559
2555.64,0.33882
2556.585,0.33884377
2557.529,0.33938493
2558.475,0.33995095
2559.421,0.34062671
2560.368,0.3418703
2561.316,0.34308778
2562.264,0.34307828
2563.213,0.34219819
2564.163,0.34168162
2565.113,0.34154297
2566.065,0.34126834
2567.016,0.34130905
2567.969,0.34207548
2568.922,0.34274149
2569.876,0.34261362
2570.831,0.34261
2571.786,0.34338523
2572.742,0.34397697
2573.699,0.34376416
2574.656,0.34375394
2575.615,0.34425865
2576.573,0.34412684
2577.533,0.34331699
2578.493,0.3432632
2579.454,0.34413672
2580.416,0.34476728
2581.378,0.34514968
2582.342,0.34622265
2583.305,0.34733198
2584.27,0.34714687
2585.235,0.3466175
2586.201,0.34704983
2587.168,0.34748589
2588.135,0.34671105
2589.103,0.34588977
2590.072,0.34625109
2591.042,0.34732059
2592.012,0.34881965
2592.983,0.35158563
2593.955,0.35459803
2594.927,0.35422926
2595.9,0.35058615
2596.874,0.3478053
2597.849,0.34691419
2598.824,0.34658466
2599.8,0.34662567
2600.777,0.34761778
2601.755,0.34894618
2602.733,0.34957282
2603.712,0.34997745
2604.692,0.35073078
2605.672,0.3507822
2606.653,0.34962881
2607.635,0.34866544
2608.618,0.34850929
2609.601,0.34820317
2610.585,0.34748383
2611.57,0.34730269
2612.556,0.34793279
2613.542,0.34872102
2614.529,0.34952849
2615.517,0.35063748
2616.505,0.3515695
2617.495,0.35170992
2618.485,0.35147162
2619.475,0.35124052
2620.467,0.35045455
2621.459,0.3490441
2622.452,0.34805341
2623.446,0.34815647
2624.44,0.34893547
2625.435,0.34977142
2626.431,0.3505266
2627.428,0.35129231
2628.426,0.35202963
2629.424,0.35262327
2630.423,0.35286837
2631.423,0.35250112
2632.423,0.35160449
2633.424,0.35064219
2634.426,0.34998264
2635.429,0.34962179
2636.432,0.34940545
2637.437,0.34930824
2638.442,0.34939902
2639.447,0.34960218
2640.454,0.34969289
2641.461,0.34964428
2642.469,0.34973823
2643.478,0.35013841
2644.488,0.35057465
2645.498,0.35071133
2646.509,0.35054247
2647.521,0.3502411
2648.534,0.34998116
2649.547,0.35004384
2650.561,0.35060943
2651.576,0.35136099
2652.592,0.35179058
2653.609,0.35186768
2654.626,0.35181928
2655.644,0.35161031
2656.663,0.3513108
2657.682,0.35129664
2658.703,0.35156557
2659.724,0.35157683
2660.746,0.35130551
2661.768,0.35155381
2662.792,0.35276612
2663.816,0.35452059
2664.841,0.35618343
2665.867,0.35725423
2666.894,0.3574854
2667.921,0.3573394
2668.949,0.35751811
2669.978,0.35750696
2671.008,0.35595825
2672.038,0.35326827
2673.07,0.35149132
2674.102,0.35151942
2675.135,0.3525916
2676.168,0.35355992
2677.203,0.35360003
2678.238,0.35222388
2679.274,0.34984579
2680.311,0.34779675
2681.349,0.34688309
2682.387,0.346703
2683.426,0.34656063
2684.467,0.34635918
2685.507,0.34612608
2686.549,0.34550286
2687.591,0.34442348
2688.635,0.34345727
2689.679,0.34302662
2690.724,0.34313729
2691.769,0.34384211
2692.816,0.34503471
2693.863,0.34572836
2694.911,0.34469542
2695.96,0.34221533
2697.01,0.33970489
2698.06,0.33794957
2699.112,0.33696289
2700.164,0.33650797
2701.217,0.33603076
2702.27,0.33487235
2703.325,0.33307566
2704.38,0.33133316
2705.437,0.33012379
2706.494,0.32959092
2707.552,0.32988881
2708.61,0.33075942
2709.67,0.33080641
2710.73,0.32834999
2711.791,0.32341744
2712.853,0.31742174
2713.916,0.31104001
2714.98,0.30424547
2716.044,0.29754281
2717.109,0.29212061
2718.175,0.28900485
2719.242,0.28833779
2720.31,0.28907879
2721.379,0.28945327
2722.448,0.28827921
2723.518,0.28539229
2724.589,0.28053479
2725.661,0.27301375
2726.734,0.26310416
2727.808,0.25270199
2728.882,0.2438632
2729.958,0.23764251
2731.034,0.23420514
2732.111,0.23314802
2733.188,0.23329454
2734.267,0.23279691
2735.347,0.23057028
2736.427,0.22750885
2737.508,0.22501445
2738.59,0.2229314
2739.673,0.21964999
2740.757,0.21416846
2741.841,0.20759188
2742.927,0.20187417
2744.013,0.19809418
2745.1,0.19634466
2746.188,0.19582262
2747.277,0.1952493
2748.367,0.19397884
2749.457,0.19237115
2750.549,0.19087242
2751.641,0.18955609
2752.734,0.18853477
2753.828,0.18781112
2754.923,0.18662795
2756.019,0.18416744
2757.115,0.18119168
2758.213,0.17905016
2759.311,0.17784523
2760.41,0.17704964
2761.51,0.17650812
2762.611,0.17615245
2763.713,0.17558679
2764.816,0.17468261
2765.919,0.17391975
2767.024,0.17349617
2768.129,0.1730406
2769.235,0.17237425
2770.342,0.17176298
2771.45,0.17122336
2772.559,0.17048855
2773.669,0.16970504
2774.779,0.16926085
2775.891,0.16907352
2777.003,0.16878689
2778.116,0.16840487
2779.23,0.16813399
2780.345,0.16784035
2781.461,0.16731807
2782.578,0.16680099
2783.696,0.16657297
2784.814,0.16643483
2785.934,0.16604669
2787.054,0.16547856
2788.175,0.16502983
2789.297,0.16474716
2790.42,0.16451752
2791.544,0.16433718
2792.669,0.16416299
2793.795,0.16385022
2794.922,0.16341364
2796.049,0.16308078
2797.178,0.16292492
2798.307,0.16274588
2799.437,0.16241199
2800.568,0.16202325
2801.7,0.16164626
2802.833,0.16118744
2803.967,0.160687
2805.102,0.16043556
2806.238,0.16052188
2807.374,0.16068279
2808.512,0.16072006
2809.65,0.1606867
2810.789,0.1606263
2811.93,0.16045597
2813.071,0.1601976
2814.213,0.16003441
2815.356,0.16003734
2816.5,0.16008583
2817.645,0.16009231
2818.791,0.16006662
2819.937,0.15997515
2821.085,0.1598114
2822.233,0.1597387
2823.383,0.15989922
2824.533,0.16018475
2825.685,0.16038878
2826.837,0.16042342
2827.99,0.16029055
2829.144,0.16003006
2830.299,0.15979877
2831.455,0.1597841
2832.612,0.15996706
2833.77,0.16014104
2834.929,0.16018668
2836.089,0.16015491
2837.25,0.1601097
2838.411,0.16007568
2839.574,0.16009933
2840.737,0.16019195
2841.902,0.16029605
2843.067,0.16036563
2844.234,0.16036102
2845.401,0.16018841
2846.569,0.15982358
2847.739,0.15944719
2848.909,0.15926472
2850.08,0.15926332
2851.252,0.15930178
2852.425,0.15932213
2853.599,0.15930126
2854.774,0.15918636
2855.95,0.15905343
2857.127,0.15911238
2858.305,0.15940786
2859.484,0.15974045
2860.664,0.15993434
2861.844,0.15997963
2863.026,0.15989538
2864.209,0.15968242
2865.392,0.15943087
2866.577,0.15926162
2867.763,0.15915504
2868.949,0.1590051
2870.137,0.15882357
2871.325,0.15872944
2872.515,0.15876502
2873.705,0.15886072
2874.897,0.15895437
2876.089,0.15901313
2877.283,0.15897955
2878.477,0.15881904
2879.673,0.1586161
2880.869,0.15849406
2882.066,0.15844803
2883.265,0.15836514
2884.464,0.1582259
2885.664,0.15816491
2886.866,0.15829992
2888.068,0.15858884
2889.271,0.15888843
2890.476,0.15904365
2891.681,0.15891053
2892.887,0.15845707
2894.095,0.1578791
2895.303,0.15743729
2896.512,0.15717108
2897.723,0.15693155
2898.934,0.15667103
2900.146,0.15648402
2901.36,0.15638769
2902.574,0.15629425
2903.789,0.15621209
2905.006,0.15623072
2906.223,0.15632254
2907.441,0.15636698
2908.661,0.15633463
2909.881,0.15626106
2911.103,0.1561408
2912.325,0.15603039
2913.549,0.15615649
2914.773,0.15667515
2915.999,0.15738519
2917.225,0.15787543
2918.453,0.15792812
2919.681,0.15763026
2920.911,0.15718754
2922.142,0.15678816
2923.373,0.15656581
2924.606,0.1565078
2925.84,0.15645307
2927.075,0.1562893
2928.31,0.15608504
2929.547,0.1559421
2930.785,0.15584171
2932.024,0.15575119
2933.264,0.15576628
2934.505,0.15598635
2935.747,0.15634446
2936.99,0.15668385
2938.234,0.15691743
2939.479,0.15699601
2940.726,0.1568623
2941.973,0.15659351
2943.221,0.15648152
2944.471,0.1568026
2945.721,0.15752641
2946.973,0.15833005
2948.225,0.1588434
2949.479,0.15887956
2950.733,0.15856079
2951.989,0.15826167
2953.246,0.15829359
2954.504,0.15858067
2955.763,0.15873401
2957.023,0.15848492
2958.284,0.15796515
2959.546,0.15754024
2960.809,0.15745419
2962.073,0.15768145
2963.339,0.1580417
2964.605,0.15837504
2965.873,0.1586098
2967.141,0.15874218
2968.411,0.15881975
2969.681,0.15894834
2970.953,0.15926245
2972.226,0.15985886
2973.5,0.1607171
2974.775,0.1616319
2976.051,0.16224885
2977.328,0.16229376
2978.607,0.16184179
2979.886,0.16129086
2981.167,0.16100193
2982.448,0.16102427
2983.731,0.161169
2985.015,0.16124919
2986.3,0.16123605
2987.586,0.16129388
2988.873,0.16166042
2990.161,0.16237401
2991.45,0.16313337
2992.74,0.16356082
2994.032,0.16359281
2995.324,0.16349798
2996.618,0.16355619
2997.913,0.16386044
2999.209,0.16438024
3000.506,0.16502437
3001.804,0.16561574
3003.103,0.16596809
3004.404,0.16605732
3005.705,0.16602785
3007.008,0.16601568
3008.312,0.16607436
3009.616,0.16627005
3010.922,0.16668816
3012.23,0.16729769
3013.538,0.16792857
3014.847,0.16842732
3016.158,0.16873781
3017.469,0.16884204
3018.782,0.16877508
3020.096,0.16869567
3021.411,0.1687706
3022.727,0.16898031
3024.044,0.16920234
3025.363,0.16946805
3026.683,0.16996531
3028.003,0.17080525
3029.325,0.17192637
3030.648,0.17314528
3031.972,0.17414221
3033.298,0.17453191
3034.624,0.17419199
3035.952,0.17346371
3037.281,0.17286367
3038.611,0.17267282
3039.942,0.17290123
3041.274,0.17346331
3042.607,0.17419614
3043.942,0.17483798
3045.278,0.17518146
3046.615,0.175209
3047.953,0.17502768
3049.292,0.17477206
3050.632,0.17459973
3051.974,0.17463952
3053.317,0.1748752
3054.661,0.17515615
3056.006,0.17536099
3057.352,0.17550325
3058.7,0.17568797
3060.048,0.17603367
3061.398,0.17662201
3062.749,0.17742755
3064.101,0.17824828
3065.455,0.17876014
3066.809,0.17874974
3068.165,0.17833319
3069.522,0.17788343
3070.88,0.17769856
3072.239,0.17779268
3073.6,0.17801845
3074.962,0.17827247
3076.325,0.17853242
3077.689,0.17880502
3079.054,0.17910323
3080.421,0.17940179
3081.788,0.17961898
3083.157,0.17974704
3084.527,0.17994389
3085.899,0.18033349
3087.271,0.18077625
3088.645,0.18102057
3090.02,0.18102375
3091.396,0.18094057
3092.774,0.18087353
3094.153,0.1808383
3095.532,0.1809149
3096.914,0.18122531
3098.296,0.18177368
3099.679,0.1824212
3101.064,0.18296565
3102.45,0.18319828
3103.837,0.18302434
3105.226,0.18261754
3106.616,0.18232719
3108.007,0.18235077
3109.399,0.1826038
3110.792,0.18292966
3112.187,0.1832738
3113.583,0.18361528
3114.98,0.18389444
3116.378,0.18408605
3117.778,0.18424054
3119.179,0.18440739
3120.581,0.18459311
3121.985,0.18480761
3123.389,0.18507422
3124.795,0.18538201
3126.202,0.18568584
3127.611,0.18595499
3129.02,0.18617992
3130.431,0.1863402
3131.844,0.18641573
3133.257,0.18643818
3134.672,0.18649846
3136.088,0.18668207
3137.505,0.18700072
3138.924,0.18739178
3140.344,0.18778177
3141.765,0.18812956
3143.187,0.18841998
3144.611,0.18866423
3146.036,0.18891649
3147.462,0.18923597
3148.89,0.1896009
3150.319,0.18991866
3151.749,0.19013538
3153.18,0.19028007
3154.613,0.19040791
3156.047,0.19058014
3157.482,0.19088382
3158.919,0.19136432
3160.357,0.19193693
3161.796,0.19245933
3163.236,0.19287638
3164.678,0.19320271
3166.121,0.19342282
3167.566,0.19353402
3169.011,0.19363296
3170.458,0.19382924
3171.907,0.19411293
3173.356,0.19442012
3174.807,0.19479663
3176.26,0.19538675
3177.713,0.19626489
3179.168,0.19730986
3180.624,0.19821451
3182.082,0.19864665
3183.541,0.19851591
3185.001,0.1980999
3186.463,0.19781964
3187.926,0.19789628
3189.39,0.19830259
3190.856,0.19894409
3192.323,0.19970851
3193.791,0.2003774
3195.26,0.2006979
3196.731,0.20061718
3198.204,0.20036403
3199.677,0.20026635
3201.152,0.20050845
3202.629,0.20101859
3204.106,0.20154249
3205.585,0.20186208
3207.066,0.20200053
3208.548,0.20222107
3210.031,0.20280091
3211.515,0.20381073
3213.001,0.2050829
3214.488,0.20632241
3215.977,0.20723068
3217.467,0.20760288
3218.958,0.20741361
3220.451,0.20686271
3221.945,0.20630938
3223.441,0.2060836
3224.938,0.20626268
3226.436,0.20661063
3227.936,0.20679758
3229.437,0.20673251
3230.939,0.20663916
3232.443,0.20678086
3233.948,0.20716872
3235.455,0.20759609
3236.963,0.20789001
3238.472,0.20806183
3239.983,0.20825819
3241.495,0.20862821
3243.008,0.20919197
3244.523,0.20980737
3246.04,0.21031757
3247.558,0.21073836
3249.077,0.21121243
3250.598,0.21179904
3252.12,0.2124355
3253.643,0.21308586
3255.168,0.21373485
3256.694,0.21423994
3258.222,0.21437353
3259.751,0.21406358
3261.282,0.21348034
3262.814,0.21290971
3264.347,0.21263352
3265.882,0.21283079
3267.418,0.21342347
3268.956,0.21407529
3270.495,0.21446499
3272.036,0.21452308
3273.578,0.21436897
3275.122,0.21416036
3276.667,0.21406328
3278.213,0.21420268
3279.761,0.21454424
3281.31,0.21494636
3282.861,0.21535106
3284.413,0.21579
3285.967,0.21620822
3287.522,0.21647083
3289.079,0.21657253
3290.637,0.21669819
3292.196,0.21704112
3293.757,0.21763251
3295.32,0.21831108
3296.884,0.21879338
3298.449,0.21885949
3300.016,0.2185802
3301.585,0.21830607
3303.155,0.21833619
3304.726,0.21863505
3306.299,0.21891843
3307.873,0.21895942
3309.449,0.21878421
3311.026,0.21861878
3312.605,0.21867681
3314.185,0.21897917
3315.767,0.21936628
3317.351,0.21967253
3318.936,0.21986706
3320.522,0.22004997
3322.11,0.22037492
3323.699,0.22096176
3325.29,0.22180615
3326.882,0.22273616
3328.476,0.22346965
3330.072,0.2237357
3331.669,0.22341704
3333.267,0.22266662
3334.867,0.22186551
3336.469,0.22134473
3338.072,0.22113819
3339.676,0.22109228
3341.282,0.22114812
3342.89,0.22136378
3344.499,0.22172389
3346.11,0.22211744
3347.722,0.22248206
3349.336,0.2227993
3350.952,0.2229801
3352.569,0.22292362
3354.187,0.22266892
3355.807,0.22236271
3357.429,0.22214519
3359.052,0.22215748
3360.677,0.22252193
3362.303,0.22316973
3363.931,0.22380575
3365.56,0.22418354
3367.191,0.22431548
3368.824,0.22433292
3370.458,0.22428752
3372.093,0.22417784
3373.731,0.22402262
3375.37,0.22383026
3377.01,0.22361496
3378.652,0.22347295
3380.296,0.2235107
3381.941,0.22370191
3383.588,0.22394007
3385.236,0.22418876
3386.886,0.22445475
3388.538,0.2246851
3390.191,0.22484963
3391.846,0.22506488
3393.502,0.22547271
3395.16,0.22602771
3396.82,0.22653545
3398.481,0.22688832
3400.144,0.22717107
3401.809,0.22753234
3403.475,0.22800604
3405.143,0.22844712
3406.812,0.22862499
3408.483,0.2284034
3410.156,0.22787151
3411.83,0.22728777
3413.506,0.22688624
3415.183,0.22673911
3416.862,0.22680925
3418.543,0.22708465
3420.226,0.22758454
3421.91,0.22822061
3423.596,0.22874726
3425.283,0.22894949
3426.972,0.22886182
3428.663,0.22873013
3430.355,0.22877053
3432.049,0.22902591
3433.745,0.22944008
3435.442,0.22998092
3437.141,0.23067833
3438.842,0.23156458
3440.545,0.23255339
3442.249,0.23336104
3443.954,0.23363284
3445.662,0.23324911
3447.371,0.23248771
3449.082,0.2318125
3450.794,0.23150934
3452.509,0.23155622
3454.224,0.23176853
3455.942,0.23196804
3457.661,0.23207219
3459.382,0.23214244
3461.105,0.23232481
3462.829,0.23264352
3464.556,0.23290126
3466.283,0.23289004
3468.013,0.23263258
3469.744,0.23230102
3471.477,0.2319961
3473.212,0.23174706
3474.948,0.231622
3476.686,0.23165741
3478.426,0.23176146
3480.168,0.23183885
3481.911,0.23193048
3483.656,0.23213719
3485.403,0.23253877
3487.152,0.23323202
3488.902,0.23421096
3490.654,0.23513836
3492.408,0.23551814
3494.164,0.23523016
3495.921,0.23466624
3497.68,0.23425738
3499.441,0.23411615
3501.204,0.23418751
3502.968,0.23444395
3504.734,0.23482476
3506.502,0.23521519
3508.272,0.23557124
3510.043,0.23590715
3511.817,0.23618035
3513.592,0.23636475
3515.368,0.23657459
3517.147,0.2369389
3518.927,0.23741659
3520.71,0.23786779
3522.494,0.23820576
3524.28,0.23838477
3526.067,0.23840215
3527.857,0.2384382
3529.648,0.23881502
3531.441,0.23964746
3533.236,0.24062724
3535.032,0.2412812
3536.831,0.24138157
3538.631,0.241051
3540.433,0.24057428
3542.237,0.24019472
3544.043,0.24002635
3545.851,0.24005601
3547.66,0.24020268
3549.471,0.24039968
3551.284,0.24061971
3553.099,0.24083827
3554.916,0.24100922
3556.735,0.24110924
3558.555,0.24117743
3560.378,0.24127838
3562.202,0.24143421
3564.028,0.24163505
3565.856,0.24189234
3567.686,0.24221043
3569.518,0.24250389
3571.351,0.24263609
3573.187,0.24257548
3575.024,0.24244424
3576.863,0.2424012
3578.704,0.24254772
3580.547,0.24293214
3582.392,0.24351587
3584.239,0.24409982
3586.088,0.24442303
3587.938,0.24440931
3589.791,0.24425112
3591.645,0.2442122
3593.501,0.24440988
3595.359,0.2447683
3597.22,0.24507551
3599.082,0.24510874
3600.946,0.24483493
3602.811,0.24447547
3604.679,0.24427256
3606.549,0.24424735
3608.421,0.24430967
3610.294,0.24449012
3612.17,0.2448696
3614.047,0.24535664
3615.926,0.24572951
3617.808,0.24586764
3619.691,0.24581195
3621.576,0.2456666
3623.463,0.24555449
3625.353,0.24558079
3627.244,0.24573636
3629.137,0.24590741
3631.032,0.2460305
3632.929,0.24614108
3634.828,0.24626237
3636.729,0.24636662
3638.632,0.24645709
3640.537,0.24656756
3642.444,0.24669775
3644.353,0.24685291
3646.263,0.24710251
3648.176,0.24748324
3650.091,0.24789048
3652.008,0.24815507
3653.927,0.24819749
3655.848,0.24807262
3657.771,0.24792206
3659.696,0.24789252
3661.623,0.24802804
3663.552,0.24822803
3665.483,0.24835796
3667.416,0.2483826
3669.351,0.24836617
3671.288,0.24838997
3673.227,0.24851395
3675.168,0.2487645
3677.111,0.24912048
3679.057,0.2495263
3681.004,0.24991501
3682.953,0.25019985
3684.905,0.25030022
3686.858,0.25022506
3688.814,0.25008732
3690.771,0.24999113
3692.731,0.24995729
3694.693,0.24998137
3696.656,0.25008869
3698.622,0.25029408
3700.59,0.25055751
3702.56,0.25081017
3704.532,0.25100716
3706.507,0.25114418
3708.483,0.25124996
3710.461,0.25136843
3712.442,0.25153276
3714.425,0.25173978
3716.409,0.25194666
3718.396,0.25210511
3720.385,0.25221234
3722.376,0.25230908
3724.37,0.25243448
3726.365,0.25260726
3728.362,0.25284139
3730.362,0.25311874
3732.364,0.25337113
3734.368,0.25355334
3736.374,0.2537247
3738.382,0.25398487
3740.392,0.25436875
3742.405,0.25484908
3744.419,0.25537061
3746.436,0.25582714
3748.455,0.25612041
3750.476,0.25628751
3752.499,0.25645426
3754.525,0.25664334
3756.553,0.25677605
3758.582,0.25684501
3760.614,0.25692768
3762.649,0.25704069
3764.685,0.25714315
3766.724,0.25724682
3768.764,0.25738961
3770.807,0.25755807
3772.853,0.25773352
3774.9,0.25792309
3776.95,0.25809132
3779.001,0.25818139
3781.056,0.25823345
3783.112,0.25834402
3785.17,0.25852621
3787.231,0.25873635
3789.294,0.25897377
3791.359,0.25922749
3793.427,0.25942559
3795.496,0.25955046
3797.568,0.25968788
3799.643,0.25988456
3801.719,0.26009579
3803.798,0.26030423
3805.879,0.26053317
3807.962,0.26074751
3810.048,0.26090727
3812.135,0.26107875
3814.225,0.26134451
3816.318,0.26167719
3818.412,0.26201425
3820.509,0.26233515
3822.609,0.26258252
3824.71,0.26267907
3826.814,0.2626936
3828.92,0.26281132
3831.029,0.26308256
3833.139,0.26338969
3835.252,0.26366761
3837.368,0.26396794
3839.486,0.26431439
3841.606,0.2646739
3843.728,0.26504162
3845.853,0.26541168
3847.98,0.26571766
3850.109,0.26593127
3852.241,0.2661405
3854.375,0.26643415
3856.512,0.26679149
3858.65,0.26715448
3860.792,0.26751175
3862.935,0.26785351
3865.081,0.26814787
3867.229,0.26841099
3869.38,0.26871521
3871.533,0.26908332
3873.689,0.26945173
3875.846,0.26976673
3878.007,0.27004925
3880.169,0.27034353
3882.334,0.27066195
3884.502,0.27099737
3886.672,0.27135115
3888.844,0.2717177
3891.019,0.27207439
3893.196,0.27240357
3895.375,0.27270076
3897.557,0.27295456
3899.742,0.27315188
3901.929,0.2733132
3904.118,0.27350417
3906.31,0.27378592
3908.504,0.27416254
3910.7,0.27459024
3912.9,0.27502396
3915.101,0.27543168
3917.305,0.27577808
3919.512,0.27603418
3921.721,0.27621931
3923.932,0.27639431
3926.146,0.27659715
3928.363,0.27682496
3930.581,0.27709526
3932.803,0.27745245
3935.027,0.277878
3937.253,0.27827191
3939.482,0.27857493
3941.714,0.27882783
3943.948,0.27908219
3946.184,0.27934706
3948.423,0.27964205
3950.665,0.27998638
3952.909,0.28032832
3955.156,0.28060372
3957.405,0.28086072
3959.657,0.28120082
3961.911,0.28163312
3964.168,0.2821098
3966.427,0.28263099
3968.689,0.28318179
3970.954,0.28367296
3973.221,0.28407316
3975.491,0.28449249
3977.763,0.28502257
3980.038,0.28562035
3982.315,0.28622712
3984.595,0.28684958
3986.878,0.28746346
3989.163,0.28800121
3991.451,0.28848293
3993.742,0.28901962
3996.035,0.28966497
3998.33,0.29038939
4000.629,0.29117465
4002.93,0.29200536
4005.233,0.2928181
4007.54,0.29356837
4009.849,0.29428701
4012.16,0.29500418
4014.475,0.29569592
4016.791,0.29635082
4019.111,0.29699478
4021.433,0.29762951
4023.758,0.2982192
4026.086,0.29875231
4028.416,0.2992522
4030.749,0.29974879
4033.085,0.30028494
4035.423,0.30091698
4037.764,0.30165097
4040.108,0.30242669
4042.454,0.30319035
4044.804,0.30394388
4047.155,0.30469941
4049.51,0.30544353
4051.867,0.30615471
4054.228,0.30683001
4056.59,0.30747697
4058.956,0.30811331
4061.324,0.30877419
4063.695,0.30949115
4066.069,0.31025667
4068.446,0.31103486
4070.825,0.31181209
4073.207,0.3126007
4075.592,0.31339019
4077.98,0.31415975
4080.371,0.31493729
4082.764,0.31577005
4085.16,0.31662401
4087.559,0.3174173
4089.961,0.31816104
4092.365,0.31894306
4094.773,0.31977885
4097.183,0.32061982
4099.596,0.32148137
4102.012,0.32239696
4104.43,0.32330432
4106.852,0.32414062
4109.276,0.32496944
4111.703,0.32585874
4114.133,0.32676321
4116.566,0.32765578
4119.002,0.32860799
4121.441,0.32962551
4123.882,0.33061118
4126.327,0.33156439
4128.774,0.33257246
4131.224,0.33358954
4133.677,0.33449491
4136.133,0.33534969
4138.592,0.33631943
4141.054,0.33740541
4143.519,0.33850036
4145.987,0.33960416
4148.457,0.34075486
4150.931,0.34190961
4153.407,0.34305075
4155.887,0.3442175
4158.369,0.34535038
4160.854,0.34634007
4163.343,0.34725543
4165.834,0.34827199
4168.328,0.34941434
4170.826,0.35058895
4173.326,0.35175986
4175.829,0.35289613
4178.335,0.35393409
4180.844,0.3549403
4183.356,0.35608663
4185.872,0.3573925
4188.39,0.35876711
4190.911,0.36029908
4193.435,0.36221893
4195.963,0.36466195
4198.493,0.36773802
4201.026,0.37164861
4203.563,0.37644866
4206.102,0.38191576
4208.645,0.38790335
4211.19,0.39447565
4213.739,0.40144771
4216.291,0.40826345
4218.846,0.41462664
4221.404,0.42068792
4223.965,0.42642892
4226.529,0.43159383
4229.096,0.43626741
4231.666,0.44058837
4234.24,0.44409159
4236.816,0.44629034
4239.396,0.44750736
4241.979,0.44806877
4244.565,0.44729078
4247.154,0.44415878
4249.746,0.43863503
4252.341,0.4319691
4254.94,0.42627513
4257.542,0.42375293
4260.146,0.42565406
4262.754,0.43147427
4265.366,0.43899227
4267.98,0.44554313
4270.598,0.44971361
4273.219,0.45170684
4275.843,0.4524599
4278.47,0.45293203
4281.1,0.45370251
4283.734,0.45480736
4286.371,0.45605751
4289.011,0.45736058
4291.655,0.45850338
4294.301,0.45909305
4296.951,0.45908759
4299.604,0.45900057
4302.261,0.45922197
4304.92,0.45951113
4307.583,0.45938681
4310.25,0.45870218
4312.919,0.45762992
4315.592,0.45642805
4318.268,0.45539213
4320.948,0.45473835
4323.631,0.45437206
4326.317,0.45398773
4329.006,0.45345287
4331.699,0.45288749
4334.395,0.45240338
4337.095,0.45202418
4339.797,0.45185072
4342.504,0.45202696
4345.213,0.45253831
4347.926,0.45326566
4350.642,0.45415864
4353.362,0.45516525
4356.085,0.45614225
4358.811,0.45705449
4361.541,0.45807007
4364.275,0.4592903
4367.011,0.4606048
4369.751,0.46193227
4372.495,0.46330465
4375.242,0.46468111
4377.992,0.46602282
4380.746,0.46751293
4383.504,0.46931675
4386.264,0.47124822
4389.029,0.47307431
4391.796,0.47491062
4394.567,0.47688927
4397.342,0.47879659
4400.12,0.48049952
4402.902,0.48226278
4405.687,0.48422802
4408.476,0.48612027
4411.268,0.48782829
4414.064,0.48961858
4416.863,0.49153204
4419.666,0.49329548
4422.472,0.49495303
4425.282,0.49678498
4428.096,0.4986235
4430.913,0.50009951
4433.734,0.50140902
4436.558,0.50295956
4439.386,0.50457032
4442.217,0.50586685
4445.052,0.50705194
4447.891,0.50845902
4450.733,0.50990385
4453.579,0.51117344
4456.428,0.51252126
4459.281,0.51405802
4462.138,0.51538005
4464.998,0.51631869
4467.863,0.51731971
4470.73,0.51865512
4473.602,0.52003382
4476.477,0.52123752
4479.355,0.52242058
4482.238,0.52359909
4485.124,0.52456354
4488.014,0.52536208
4490.908,0.52628613
4493.805,0.52736957
4496.706,0.52839909
4499.611,0.52935019
4502.519,0.53038526
4505.431,0.53150037
4508.347,0.53251908
4511.267,0.5334208
4514.191,0.53437825
4517.118,0.5354766
4520.049,0.53658178
4522.984,0.53758837
4525.923,0.53862247
4528.865,0.53980973
4531.812,0.54098884
4534.762,0.54194238
4537.716,0.54279794
4540.674,0.54381397
4543.635,0.54494123
4546.601,0.54599864
4549.57,0.54710933
4552.543,0.54844223
4555.521,0.54980735
4558.502,0.55100122
4561.487,0.55222504
4564.475,0.55359057
4567.468,0.55469073
4570.465,0.55528758
4573.465,0.55593677
4576.47,0.55714692
4579.478,0.55859344
4582.491,0.55987731
4585.507,0.56117794
4588.527,0.56255938
4591.551,0.5636315
4594.58,0.5644309
4597.612,0.56561934
4600.648,0.5673387
4603.688,0.56892255
4606.732,0.57006969
4609.781,0.57121999
4612.833,0.57251634
4615.889,0.57359444
4618.949,0.57453288
4622.014,0.57583678
4625.082,0.57732725
4628.155,0.57835721
4631.231,0.5790897
4634.312,0.58029048
4637.397,0.58186968
4640.485,0.58313111
4643.578,0.5841623
4646.675,0.58550767
4649.777,0.58698113
4652.882,0.58805611
4655.991,0.58904027
4659.105,0.5905558
4662.223,0.5923008
4665.345,0.59370568
4668.471,0.59513048
4671.601,0.59706844
4674.735,0.59907335
4677.874,0.60062719
4681.017,0.60203312
4684.164,0.60340599
4687.315,0.60412701
4690.471,0.60423484
4693.63,0.60487906
4696.794,0.60656341
4699.962,0.6084602
4703.135,0.6100037
4706.312,0.61159617
4709.493,0.61331622
4712.678,0.61459399
4715.868,0.61546179
4719.062,0.61659866
4722.26,0.61806414
4725.463,0.61936701
4728.669,0.62057074
4731.881,0.62203016
4735.096,0.62347663
4738.316,0.62448824
4741.541,0.62535205
4744.769,0.62652637
4748.002,0.62790498
4751.24,0.62926533
4754.482,0.63075087
4757.728,0.63239733
4760.979,0.63388963
4764.234,0.63512317
4767.494,0.63638693
4770.758,0.63781881
4774.026,0.63925657
4777.299,0.64062107
4780.577,0.64199426
4783.859,0.64337503
4787.145,0.64468215
4790.436,0.64587647
4793.732,0.64695664
4797.032,0.64796572
4800.336,0.64901524
4803.645,0.65015711
4806.959,0.65134091
4810.277,0.65261466
4813.6,0.65410556
4816.927,0.65565013
4820.259,0.65681308
4823.596,0.65742923
4826.937,0.65776658
4830.283,0.65813273
4833.633,0.65872048
4836.988,0.65969447
4840.348,0.6609731
4843.712,0.66214607
4847.081,0.66304697
4850.455,0.6640347
4853.833,0.66532957
4857.216,0.66655535
4860.604,0.66736481
4863.996,0.66800617
4867.393,0.66879945
4870.795,0.66954886
4874.202,0.6699875
4877.613,0.67036826
4881.03,0.6710835
4884.451,0.6721257
4887.876,0.67336745
4891.307,0.67486124
4894.742,0.67647391
4898.182,0.67776386
4901.627,0.6786383
4905.077,0.67960392
4908.532,0.68082402
4911.991,0.68171844
4915.456,0.68204317
4918.925,0.68243588
4922.399,0.68336223
4925.878,0.68454176
4929.362,0.68575755
4932.851,0.68711504
4936.345,0.68831206
4939.844,0.68888486
4943.347,0.68930576
4946.856,0.69050802
4950.37,0.69236227
4953.888,0.69387182
4957.412,0.69468842
4960.941,0.69522535
4964.474,0.69566048
4968.013,0.69601152
4971.556,0.69669453
4975.105,0.69791883
4978.659,0.69901643
4982.218,0.69942312
4985.782,0.69969052
4989.351,0.70048854
4992.925,0.70151867
4996.504,0.70233699
5000.088,0.70321843
5003.678,0.70442999
5007.272,0.70574389
5010.872,0.7071791
5014.477,0.70907517
5018.087,0.71105184
5021.703,0.71213398
5025.323,0.71218819
5028.949,0.71208749
5032.58,0.71236772
5036.216,0.71285551
5039.857,0.71348694
5043.504,0.71441719
5047.156,0.71545742
5050.813,0.71628797
5054.475,0.7170435
5058.143,0.71799086
5061.816,0.71895711
5065.495,0.71971839
5069.179,0.72058024
5072.868,0.72197398
5076.562,0.72377558
5080.262,0.72544941
5083.967,0.72662442
5087.678,0.72726495
5091.394,0.72755271
5095.115,0.72782546
5098.842,0.72842465
5102.574,0.72940903
5106.312,0.73051949
5110.055,0.73147431
5113.804,0.73222329
5117.558,0.73291272
5121.318,0.73366637
5125.083,0.73449037
5128.854,0.73545639
5132.63,0.7368758
5136.412,0.73902614
5140.199,0.74165383
5143.992,0.74398545
5147.791,0.74530712
5151.595,0.7454227
5155.405,0.74468803
5159.22,0.74387383
5163.041,0.74379523
5166.868,0.74464913
5170.7,0.74585847
5174.538,0.74685557
5178.382,0.74771708
5182.231,0.74876082
5186.086,0.75007677
5189.947,0.75177747
5193.814,0.75404894
5197.686,0.75660896
5201.564,0.75884648
5205.448,0.76065527
5209.338,0.76223496
5213.233,0.76308846
5217.134,0.76253426
5221.041,0.76124523
5224.954,0.76083152
5228.873,0.76186456
5232.798,0.76353121
5236.728,0.76501492
5240.665,0.76610303
5244.607,0.76668658
5248.555,0.7668362
5252.51,0.7671404
5256.47,0.7680271
5260.436,0.769202
5264.408,0.77040477
5268.386,0.77192504
5272.37,0.77377209
5276.36,0.77539698
5280.356,0.77677928
5284.358,0.77855834
5288.367,0.78060311
5292.381,0.78179165
5296.401,0.7817125
5300.428,0.78127626
5304.46,0.78126792
5308.499,0.781631
5312.544,0.78228717
5316.595,0.78337739
5320.652,0.78459534
5324.715,0.78540892
5328.785,0.78605089
5332.86,0.78744183
5336.942,0.79019965
5341.031,0.79422215
5345.125,0.79870503
5349.226,0.80202191
5353.333,0.80252251
5357.446,0.80037502
5361.566,0.79772756
5365.692,0.79644638
5369.824,0.7966071
5373.962,0.79731402
5378.107,0.79805698
5382.259,0.79877796
5386.417,0.79941282
5390.581,0.80001295
5394.751,0.80089902
5398.928,0.80228284
5403.112,0.80423565
5407.302,0.80715795
5411.498,0.81146635
5415.701,0.81636297
5419.911,0.81969752
5424.127,0.81993344
5428.349,0.81784321
5432.579,0.81543647
5436.814,0.81408569
5441.057,0.81424451
5445.305,0.81589561
5449.561,0.81873941
5453.823,0.82253892
5458.092,0.82729581
5462.368,0.83243502
5466.65,0.83634208
5470.939,0.83805099
5475.234,0.83864795
5479.537,0.83936912
5483.846,0.83963217
5488.162,0.83868216
5492.484,0.83751052
5496.814,0.8373805
5501.15,0.83857845
5505.493,0.84182031
5509.843,0.8482241
5514.2,0.85694602
5518.564,0.86549051
5522.934,0.87257427
5527.312,0.87821135
5531.696,0.88243286
5536.087,0.88691364
5540.486,0.89315757
5544.891,0.89338023
5549.303,0.87134861
5553.723,0.81702203
5558.149,0.7601078
5562.582,0.69768217
5567.023,0.66306445
5571.47,0.65324874
5575.925,0.65667587
5580.387,0.67977464
5584.856,0.7114927
5589.332,0.73282997
5593.815,0.74450339
5598.305,0.75532914
5602.803,0.76500977
5607.307,0.76917213
5611.819,0.77248416
5616.339,0.7795103
5620.865,0.78615501
5625.399,0.78859204
5629.94,0.79157798
5634.489,0.79816493
5639.044,0.80320397
5643.607,0.80287499
5648.178,0.80195385
5652.756,0.80310921
5657.341,0.80303637
5661.934,0.8016075
5666.534,0.80351421
5671.142,0.80856144
5675.757,0.81120872
5680.379,0.81072279
5685.01,0.81176438
5689.647,0.8145099
5694.293,0.81533568
5698.945,0.81572135
5703.606,0.81986264
5708.274,0.82582732
5712.949,0.82808065
5717.633,0.82755697
5722.324,0.82867211
5727.022,0.83060966
5731.729,0.83051904
5736.443,0.83061385
5741.165,0.83337281
5745.894,0.83604056
5750.631,0.83656491
5755.377,0.83907559
5760.13,0.8456995
5764.89,0.85068051
5769.659,0.84970005
5774.436,0.8473808
5779.22,0.84693246
5784.012,0.84537878
5788.813,0.84225051
5793.621,0.84195579
5798.437,0.84530226
5803.262,0.84847694
5808.094,0.851576
5812.934,0.85815369
5817.782,0.8658253
5822.639,0.86769176
5827.503,0.86472085
5832.376,0.8628424
5837.257,0.86200142
5842.146,0.85989513
5847.043,0.85976614
5851.948,0.86432567
5856.862,0.86952246
5861.783,0.87148737
5866.714,0.87397442
5871.652,0.87965053
5876.598,0.88405451
5881.553,0.88403638
5886.517,0.8836262
5891.488,0.88375761
5896.468,0.88042613
5901.457,0.87505685
5906.454,0.87358357
5911.459,0.87580674
5916.473,0.8774845
5921.495,0.87945869
5926.526,0.88514188
5931.565,0.89115526
5936.613,0.89105709
5941.67,0.88714903
5946.735,0.88512496
5951.809,0.88449959
5956.891,0.88360347
5961.982,0.88472855
5967.082,0.88831538
5972.19,0.8902744
5977.307,0.88950518
5982.433,0.88986502
5987.568,0.89149708
5992.711,0.89051361
5997.864,0.88787377
6003.025,0.88802371
6008.195,0.89010665
6013.374,0.88970852
6018.562,0.88762774
6023.759,0.88809785
6028.964,0.89152717
6034.179,0.89587664
6039.403,0.90104274
6044.636,0.90579933
6049.878,0.90614409
6055.129,0.9027644
6060.389,0.90144867
6065.658,0.90325772
6070.936,0.90374848
6076.224,0.90107465
6081.52,0.89850935
6086.826,0.89799562
6092.141,0.89879591
6097.466,0.90125864
6102.8,0.90572296
6108.143,0.90900906
6113.495,0.90795688
6118.857,0.90484625
6124.228,0.90326387
6129.609,0.90318636
6134.999,0.90370804
6140.398,0.90549083
6145.807,0.90820746
6151.226,0.90958867
6156.654,0.90911529
6162.091,0.90887329
6167.539,0.90980799
6172.996,0.91087357
6178.462,0.91158373
6183.938,0.91212292
6189.424,0.91183896
6194.92,0.91055737
6200.425,0.90985383
6205.94,0.91065775
6211.465,0.91174047
6217.0,0.91197461
6222.544,0.91219005
6228.099,0.91306568
6233.663,0.91365364
6239.237,0.9133816
6244.822,0.91330708
6250.416,0.91403606
6256.02,0.91479749
6261.635,0.91527254
6267.259,0.91618078
6272.893,0.91735213
6278.538,0.91768902
6284.193,0.91728205
6289.858,0.91734202
6295.533,0.91794518
6301.218,0.91831008
6306.914,0.9187533
6312.619,0.92005583
6318.336,0.92167585
6324.062,0.92292057
6329.799,0.92440636
6335.546,0.92627031
6341.304,0.92689586
6347.072,0.92609946
6352.851,0.92633956
6358.64,0.92852167
6364.44,0.93036266
6370.25,0.93023654
6376.071,0.92931698
6381.903,0.92871752
6387.745,0.92855861
6393.598,0.93005419
6399.461,0.93433553
6405.335,0.93896164
6411.221,0.93988902
6417.116,0.93779411
6423.023,0.93590225
6428.941,0.93437999
6434.869,0.93270375
6440.809,0.93232201
6446.759,0.93359315
6452.72,0.93458074
6458.693,0.93504431
6464.676,0.93719621
6470.671,0.94104712
6476.676,0.94368779
6482.693,0.94412121
6488.721,0.94386945
6494.76,0.94282229
6500.81,0.94059015
6506.872,0.93949721
6512.945,0.94079026
6519.029,0.9420368
6525.124,0.94150714
6531.231,0.94130782
6537.35,0.94281365
6543.48,0.94425864
6549.621,0.94492188
6555.774,0.94653933
6561.938,0.94892286
6568.114,0.94971965
6574.302,0.94932109
6580.501,0.9498075
6586.712,0.95030964
6592.934,0.94920346
6599.169,0.94823828
6605.415,0.949505
6611.673,0.9518796
6617.943,0.95367966
6624.224,0.95534454
6630.518,0.95646149
6636.823,0.95490994
6643.141,0.95178005
6649.47,0.95074397
6655.812,0.95215555
6662.166,0.95344185
6668.532,0.95368366
6674.91,0.95404449
6681.3,0.95445993
6687.702,0.95425833
6694.117,0.95467721
6700.544,0.95662903
6706.983,0.95818897
6713.435,0.95759169
6719.899,0.95630502
6726.375,0.95597411
6732.864,0.95589297
6739.365,0.95560122
6745.879,0.9562497
6752.406,0.95799784
6758.945,0.95938027
6765.497,0.96012742
6772.062,0.96129579
6778.639,0.96235353
6785.229,0.96167854
6791.832,0.96003037
6798.448,0.95947941
6805.076,0.9600103
6811.718,0.96045696
6818.372,0.960972
6825.039,0.96204357
6831.72,0.96298925
6838.413,0.96354507
6845.12,0.96475673
6851.84,0.96662623
6858.573,0.96722013
6865.319,0.96601349
6872.078,0.96490197
6878.851,0.96472174
6885.637,0.96463682
6892.437,0.96456511
6899.25,0.96513466
6906.076,0.96577033
6912.916,0.96550203
6919.769,0.96502934
6926.636,0.96545546
6933.517,0.96636294
6940.411,0.96698607
6947.319,0.96769997
6954.241,0.96869164
6961.176,0.96913273
6968.125,0.96900912
6975.089,0.96936906
6982.066,0.97019555
6989.057,0.97047997
6996.062,0.97030416
7003.081,0.97060961
7010.114,0.97132536
7017.161,0.97186095
7024.223,0.97260237
7031.298,0.97395585
7038.388,0.97505726
7045.492,0.97519494
7052.611,0.97508178
7059.743,0.97528072
7066.891,0.97532764
7074.052,0.97511157
7081.229,0.97525644
7088.419,0.97581773
7095.625,0.97622731
7102.845,0.97653341
7110.079,0.97719376
7117.329,0.97798836
7124.593,0.97847625
7131.872,0.9789219
7139.166,0.9796703
7146.475,0.98034215
7153.799,0.98051183
7161.137,0.98043095
7168.491,0.98048853
7175.86,0.98068147
7183.244,0.98096104
7190.643,0.9814189
7198.058,0.981988
7205.487,0.9824201
7212.933,0.98263018
7220.393,0.9827957
7227.869,0.983097
7235.36,0.98353183
7242.867,0.98400097
7250.39,0.98451493
7257.928,0.98514185
7265.481,0.98572613
7273.051,0.98600533
7280.636,0.98609371
7288.237,0.98635544
7295.854,0.98679218
7303.487,0.98716305
7311.135,0.98758321
7318.8,0.98826755
7326.481,0.98890342
7334.178,0.98908093
7341.891,0.98903665
7349.62,0.98916898
7357.366,0.98940474
7365.128,0.98965651
7372.906,0.99017683
7380.701,0.99092909
7388.512,0.99149819
7396.34,0.99187638
7404.184,0.99245604
7412.045,0.99315286
7419.922,0.99354948
7427.817,0.99374685
7435.728,0.99414485
7443.656,0.99468715
7451.601,0.99512951
7459.562,0.99554453
7467.541,0.99597619
7475.537,0.99619636
7483.55,0.99622438
7491.58,0.99638334
7499.628,0.99672166
7507.692,0.99701139
7515.774,0.99724516
7523.874,0.99754965
7531.99,0.99785514
7540.125,0.99811073
7548.277,0.99843582
7556.446,0.99880517
7564.633,0.99904872
7572.838,0.99920959
7581.061,0.99940739
7589.302,0.99953921
7597.56,0.99956281
7605.837,0.99969882
7614.131,0.99997459
7622.444,0.0100010042
7630.774,0.0100002983
7639.123,0.0100002413
7647.491,0.0100011098
7655.876,0.0100015431
7664.28,0.0100030908
7672.702,0.0100074012
7681.143,0.010011872
7689.602,0.0100140488
7698.08,0.0100158316
7706.577,0.0100185997
7715.093,0.010020225
7723.627,0.010020446
7732.18,0.0100224242
7740.752,0.0100266613
7749.343,0.0100303264
7757.953,0.0100330111
7766.583,0.0100366873
7775.231,0.0100405879
7783.899,0.0100427519
7792.586,0.0100445553
7801.292,0.0100482929
7810.018,0.0100529611
7818.764,0.0100568776
7827.529,0.0100610685
7836.313,0.0100665109
7845.117,0.0100717747
7853.942,0.0100759975
7862.786,0.0100806962
7871.649,0.0100868111
7880.533,0.010093047
7889.437,0.0100983098
7898.361,0.0101028208
7907.305,0.0101066333
7916.27,0.0101092422
7925.254,0.0101112377
7934.26,0.0101138626
7943.285,0.0101173914
7952.331,0.0101211678
7961.398,0.0101252983
7970.485,0.0101303294
7979.594,0.0101358048
7988.723,0.01014056
7997.872,0.0101444106
8007.043,0.0101480523
8016.235,0.0101515749
8025.448,0.0101544216
8034.682,0.0101567671
8043.937,0.0101593629
8053.214,0.0101624109
8062.512,0.0101656699
8071.832,0.0101689785
8081.173,0.0101719493
8090.535,0.0101740824
8099.92,0.0101758947
8109.326,0.0101785132
8118.754,0.0101819186
8128.204,0.0101851995
8137.676,0.0101881606
8147.169,0.010191101
8156.686,0.0101938164
8166.224,0.0101963684
8175.785,0.0101996047
8185.368,0.0102035123
8194.973,0.0102069322
8204.601,0.0102096688
8214.252,0.0102126958
8223.925,0.0102159168
8233.621,0.0102183818
8243.34,0.0102205674
8253.082,0.0102237688
8262.847,0.0102277783
8272.635,0.010231502
8282.446,0.0102349171
8292.281,0.0102383913
8302.139,0.0102416257
8312.02,0.0102446294
8321.925,0.0102482071
8331.853,0.0102522894
8341.805,0.0102557208
8351.781,0.0102581318
8361.781,0.0102604544
8371.804,0.0102633644
8381.852,0.010266571
8391.924,0.0102695368
8402.02,0.0102721796
8412.14,0.0102746156
8422.285,0.0102768503
8432.454,0.0102788278
8442.648,0.0102808114
8452.866,0.0102832
8463.109,0.0102858919
8473.377,0.0102884236
8483.67,0.01029098
8493.988,0.0102937274
8504.331,0.0102956867
8514.699,0.0102961127
8525.092,0.0102963881
8535.511,0.0102979533
8545.955,0.0102999169
8556.425,0.0103010278
8566.921,0.0103021042
8577.442,0.0103038184
8587.989,0.0103050202
8598.562,0.0103053359
8609.161,0.0103062806
8619.786,0.0103081209
8630.437,0.0103095924
8641.115,0.0103109097
8651.819,0.0103132897
8662.55,0.0103159233
8673.307,0.0103175492
8684.091,0.0103191897
8694.902,0.010321924
8705.739,0.0103246446
8716.604,0.0103266553
8727.496,0.0103291538
8738.415,0.0103323668
8749.361,0.0103351147
8760.335,0.0103375402
8771.336,0.0103404863
8782.365,0.0103432702
8793.422,0.0103454068
8804.507,0.0103482559
8815.619,0.0103522392
8826.76,0.0103560818
8837.928,0.0103598129
8849.125,0.0103642757
8860.351,0.0103680953
8871.604,0.0103699215
8882.887,0.0103717548
8894.198,0.0103752547
8905.538,0.0103784657
8916.907,0.0103801562
8928.305,0.0103821593
8939.732,0.0103846066
8951.188,0.0103851946
8962.673,0.0103847372
8974.189,0.0103858799
8985.733,0.0103872118
8997.308,0.010385869
9008.912,0.0103837487
9020.546,0.0103834519
9032.21,0.0103827968
9043.905,0.0103797865
9055.629,0.010377184
9067.384,0.0103764796
9079.17,0.0103748753
9090.986,0.0103718147
9102.833,0.010370516
9114.711,0.0103705199
9126.62,0.0103677525
9138.56,0.010362258
9150.531,0.0103577148
9162.534,0.01035432
9174.568,0.0103500535
9186.634,0.0103460797
9198.731,0.0103442163
9210.86,0.0103425689
9223.022,0.0103395681
9235.215,0.0103373825
9247.441,0.0103374588
9259.699,0.0103373631
9271.99,0.0103354498
9284.313,0.0103335051
9296.669,0.0103328532
9309.058,0.0103322662
9321.48,0.0103311163
9333.935,0.0103304893
9346.423,0.0103306683
9358.945,0.0103305566
9371.5,0.0103300951
9384.089,0.010330494
9396.712,0.0103320274
9409.369,0.0103334475
9422.06,0.0103340032
9434.785,0.0103341563
9447.545,0.0103343917
9460.339,0.0103345705
9473.167,0.0103349388
9486.031,0.010336091
9498.929,0.0103376399
9511.863,0.0103383998
9524.832,0.0103383614
9537.836,0.0103387153
9550.876,0.0103399111
9563.951,0.0103412462
9577.062,0.0103425971
9590.209,0.0103443236
9603.393,0.0103459748
9616.612,0.010346773
9629.868,0.0103469489
9643.16,0.0103471521
9656.49,0.0103475637
9669.856,0.010348425
9683.259,0.0103502071
9696.699,0.0103525
9710.176,0.0103542301
9723.691,0.0103550166
9737.244,0.0103553111
9750.834,0.0103553452
9764.463,0.0103552433
9778.129,0.0103552891
9791.834,0.010355433
9805.577,0.0103553548
9819.359,0.0103555882
9833.18,0.0103567707
9847.039,0.0103585803
9860.938,0.0103603423
9874.875,0.0103624391
9888.853,0.0103652516
9902.869,0.0103681628
9916.926,0.0103703808
9931.022,0.0103719256
9945.159,0.0103727105
9959.336,0.0103724819
9973.553,0.0103718833
9987.811,0.0103721544
10002.109,0.0103733113
10016.449,0.0103742911
10030.83,0.0103745513
10045.252,0.0103744556
10059.715,0.010374091
10074.221,0.0103733584
10088.768,0.0103728272
10103.357,0.0103734367
10117.988,0.0103752232
10132.662,0.0103775418
10147.378,0.0103800658
10162.137,0.0103828276
10176.939,0.0103854666
10191.784,0.0103875215
10206.672,0.0103892364
10221.604,0.0103911593
10236.58,0.010392951
10251.6,0.0103940209
10266.663,0.0103948245
10281.771,0.0103961626
10296.924,0.0103975799
10312.121,0.0103984747
10327.363,0.0103996126
10342.65,0.0104018569
10357.982,0.0104044584
10373.36,0.0104065384
10388.784,0.0104084406
10404.253,0.0104102763
10419.769,0.0104111239
10435.331,0.0104109929
10450.939,0.0104108595
10466.594,0.0104105444
10482.296,0.0104093481
10498.045,0.0104082637
10513.842,0.0104083614
10529.686,0.0104086054
10545.577,0.0104080858
10561.517,0.0104080504
10577.505,0.0104090332
10593.542,0.010409669
10609.627,0.0104099068
10625.761,0.0104111878
10641.944,0.0104126143
10658.176,0.0104121286
10674.458,0.0104107052
10690.79,0.0104104282
10707.172,0.0104104732
10723.604,0.0104100304
10740.086,0.010411004
10756.619,0.0104137516
10773.203,0.0104151723
10789.839,0.010414499
10806.525,0.0104143187
10823.264,0.0104146811
10840.054,0.0104134406
10856.896,0.0104121846
10873.791,0.010413583
10890.738,0.0104154889
10907.738,0.010415044
10924.791,0.0104145536
10941.898,0.0104161015
10959.058,0.0104168976
10976.272,0.010415415
10993.541,0.0104147454
11010.863,0.010415687
11028.24,0.010415292
11045.672,0.0104135555
11063.16,0.0104129114
11080.702,0.0104117838
11098.301,0.0104078161
11115.955,0.0104039526
11133.665,0.0104033808
11151.432,0.0104033842
11169.256,0.0104011622
11187.137,0.0103987383
11205.075,0.0103975291
11223.07,0.0103955366
11241.124,0.0103929891
11259.235,0.010392439
11277.405,0.0103931659
11295.634,0.0103926801
11313.921,0.0103919454
11332.268,0.0103924826
11350.675,0.0103923996
11369.141,0.0103902026
11387.667,0.0103878674
11406.254,0.0103864948
11424.901,0.010384667
11443.61,0.0103823193
11462.38,0.010380856
11481.211,0.0103795661
11500.105,0.0103769268
11519.06,0.0103737338
11538.079,0.0103712301
11557.16,0.0103686794
11576.304,0.0103658526
11595.511,0.0103640837
11614.783,0.0103635374
11634.118,0.0103626622
11653.518,0.0103611656
11672.983,0.0103600983
11692.513,0.0103595824
11712.108,0.0103589049
11731.769,0.0103584231
11751.496,0.0103587583
11771.29,0.01035945
11791.15,0.010359682
11811.077,0.0103599816
11831.072,0.010361287
11851.134,0.0103634468
11871.265,0.0103652572
11891.464,0.010366412
11911.731,0.0103676653
11932.068,0.0103690359
11952.475,0.0103693337
11972.951,0.0103687881
11993.497,0.0103691632
12014.114,0.0103708161
12034.802,0.0103720261
12055.562,0.0103726089
12076.393,0.0103735834
12097.296,0.0103740003
12118.271,0.0103723961
12139.32,0.0103706817
12160.441,0.0103708851
12181.636,0.0103710151
12202.905,0.0103691628
12224.249,0.0103679875
12245.667,0.0103691452
12267.16,0.0103695781
12288.729,0.0103676894
12310.373,0.0103664507
12332.094,0.010366528
12353.892,0.0103646271
12375.767,0.0103606376
12397.719,0.0103578998
12419.75,0.0103559156
12441.859,0.0103519248
12464.046,0.0103480425
12486.313,0.0103480229
12508.659,0.0103498878
12531.086,0.0103498983
12553.593,0.0103488137
12576.18,0.010348306
12598.85,0.0103467446
12621.601,0.0103436876
12644.434,0.0103421332
12667.35,0.0103429387
12690.349,0.0103429309
12713.432,0.0103413713
12736.599,0.010341101
12759.85,0.0103425963
12783.187,0.0103431068
12806.608,0.0103423511
12830.116,0.010342543
12853.71,0.0103435502
12877.391,0.010343326
12901.159,0.0103425424
12925.016,0.0103433731
12948.96,0.0103453106
12972.993,0.0103465164
12997.116,0.0103479777
13021.329,0.0103513275
13045.631,0.0103552098
13070.025,0.0103576044
13094.51,0.0103593893
13119.087,0.0103613668
13143.756,0.0103618578
13168.518,0.0103606352
13193.373,0.0103608252
13218.322,0.0103630728
13243.366,0.01036434
13268.505,0.010364278
13293.74,0.0103659939
13319.07,0.0103687068
13344.497,0.0103686546
13370.021,0.010366846
13395.644,0.0103669539
13421.364,0.0103671854
13447.183,0.0103646491
13473.102,0.0103624671
13499.121,0.0103633869
13525.24,0.0103631041
13551.461,0.0103594843
13577.783,0.0103571876
13604.208,0.0103570627
13630.736,0.010353383
13657.367,0.0103468131
13684.103,0.010343528
13710.943,0.0103413617
13737.889,0.0103332466
13764.941,0.0103231474
13792.099,0.0103191381
13819.365,0.0103181086
13846.739,0.0103140886
13874.221,0.0103113573
13901.813,0.0103128446
13929.515,0.0103114853
13957.327,0.0103049238
13985.25,0.0103016123
14013.285,0.0103025763
14041.433,0.0102994249
14069.694,0.0102933123
14098.068,0.0102930637
14126.558,0.0102951097
14155.163,0.0102902435
14183.883,0.010282477
14212.721,0.0102793181
14241.676,0.0102752709
14270.749,0.0102663508
14299.94,0.0102619007
14329.252,0.0102659027
14358.684,0.0102674381
14388.237,0.0102624477
14417.911,0.0102586274
14447.709,0.0102555602
14477.629,0.0102454576
14507.674,0.0102338212
14537.844,0.0102303442
14568.139,0.0102294697
14598.561,0.0102224914
14629.109,0.0102160122
14659.786,0.0102148484
14690.592,0.010210517
14721.528,0.0102002368
14752.594,0.0101947922
14783.791,0.0101935907
14815.121,0.0101840963
14846.583,0.010163619
14878.179,0.0101386111
14909.91,0.0101071674
14941.777,0.0100748436
14973.78,0.0100612301
15005.92,0.0100718577
15038.198,0.0100814594
15070.616,0.0100761934
15103.173,0.0100623406
15135.871,0.0100452941
15168.712,0.0100163784
15201.695,0.99827444
15234.821,0.99471682
15268.092,0.99043123
15301.509,0.98462112
15335.072,0.9790614
15368.783,0.97302939
15402.642,0.96591467
15436.651,0.95710649
15470.81,0.94982541
15505.12,0.94139138
15539.583,0.93142258
15574.199,0.91920138
15608.97,0.9086001
15643.896,0.89397125
15678.979,0.87762764
15714.22,0.85834928
15749.619,0.84205253
15785.178,0.82259591
15820.897,0.80278633
15856.779,0.78507598
15892.824,0.77444024
15929.033,0.75730839
15965.407,0.73126533
