Database of Origin,University of Winnipeg Spectrophotometer Facility
Sample Description,16.11. Meteorites - HEDs 16.11.3. NASA samples (4) Bruker Vertex 70 FTIR spectrometer
Other Information,MIR Glowbar KBr Beam Splitter MCT cryo cooled Dectect.
Date Added,2018-07-23 23:49:05.832079

Data ID,FTIR_MET2_6_35      
Sample ID,Talampaya
Mineral Name,Cumulate Eucrite
Grain Size,<45 um
Viewing Geometry,i30/ e0
Resolution,7.71cm-1

Wavelength
1672.316177,0.33716
1674.476792,0.33628
1676.642997,0.33458
1678.814814,0.33306
1680.992268,0.33164
1683.175374,0.33074
1685.364158,0.33084
1687.558643,0.33013
1689.758849,0.32837
1691.9648,0.32726
1694.176519,0.32673
1696.394027,0.32567
1698.61735,0.32435
1700.846507,0.32361
1703.081521,0.32302
1705.322418,0.32171
1707.569219,0.31984
1709.821949,0.31871
1712.08063,0.31787
1714.345286,0.31645
1716.615945,0.31561
1718.892624,0.31524
1721.175349,0.31444
1723.464146,0.31349
1725.759038,0.31247
1728.060049,0.31147
1730.367205,0.31088
1732.68053,0.31031
1735.000051,0.30905
1737.325788,0.30751
1739.657769,0.30676
1741.996018,0.30648
1744.340562,0.30587
1746.691425,0.30476
1749.048633,0.30356
1751.412211,0.30269
1753.78219,0.30192
1756.158588,0.30106
1758.541435,0.30003
1760.930758,0.29878
1763.326581,0.29774
1765.728933,0.29729
1768.13784,0.29679
1770.553328,0.29564
1772.975429,0.29441
1775.404162,0.29364
1777.839558,0.29309
1780.281645,0.29241
1782.73045,0.29148
1785.186001,0.29049
1787.648326,0.28972
1790.117454,0.28925
1792.593414,0.28872
1795.07623,0.28785
1797.565933,0.28706
1800.062552,0.28662
1802.566116,0.28606
1805.076653,0.28475
1807.594193,0.28339
1810.118766,0.28308
1812.650403,0.28271
1815.189129,0.28184
1817.734976,0.28123
1820.287974,0.28039
1822.848154,0.27932
1825.415545,0.27834
1827.990179,0.27742
1830.572085,0.27724
1833.161299,0.27751
1835.757844,0.27718
1838.361756,0.2765
1840.973065,0.27546
1843.591803,0.27432
1846.218001,0.27374
1848.851693,0.2732
1851.492909,0.27248
1854.141686,0.27204
1856.798049,0.27169
1859.462034,0.27137
1862.133675,0.27089
1864.813003,0.2701
1867.500053,0.26951
1870.194858,0.26925
1872.897451,0.26898
1875.60787,0.26843
1878.326142,0.26745
1881.052305,0.26677
1883.786392,0.26655
1886.528439,0.26642
1889.27848,0.26635
1892.03655,0.26612
1894.802685,0.26546
1897.576923,0.26453
1900.359294,0.26379
1903.149835,0.26347
1905.948585,0.26328
1908.755578,0.26281
1911.570851,0.26236
1914.394441,0.26171
1917.226385,0.26113
1920.066724,0.2612
1922.915487,0.26097
1925.772716,0.26027
1928.638449,0.25983
1931.512723,0.25943
1934.395578,0.25894
1937.28705,0.25911
1940.18718,0.25957
1943.09601,0.2593
1946.013571,0.25871
1948.939907,0.25857
1951.875057,0.2584
1954.819061,0.25791
1957.771959,0.25755
1960.733792,0.25759
1963.7046,0.25782
1966.684429,0.25798
1969.67331,0.258
1972.671291,0.25797
1975.678411,0.25794
1978.694713,0.25798
1981.72024,0.25821
1984.755033,0.25854
1987.799135,0.25883
1990.852594,0.259
1993.915443,0.25904
1996.987732,0.25886
2000.069502,0.25862
2003.160799,0.25859
2006.261667,0.25869
2009.37215,0.25895
2012.492292,0.25946
2015.622144,0.25976
2018.761742,0.25977
2021.911136,0.25983
2025.070371,0.26026
2028.239495,0.26094
2031.418553,0.26136
2034.607593,0.26158
2037.806661,0.262
2041.015809,0.26247
2044.235076,0.26275
2047.464515,0.26317
2050.704173,0.26385
2053.9541,0.26439
2057.214344,0.26461
2060.484955,0.26507
2063.765981,0.26591
2067.057478,0.26673
2070.359486,0.26726
2073.672061,0.26755
2076.995253,0.26792
2080.329113,0.26862
2083.673693,0.26954
2087.029044,0.27045
2090.39522,0.27101
2093.772276,0.27118
2097.160256,0.27147
2100.559219,0.27228
2103.969217,0.27334
2107.390304,0.27382
2110.822536,0.27409
2114.265965,0.27485
2117.720647,0.27586
2121.186643,0.27697
2124.663997,0.27805
2128.152772,0.27884
2131.653022,0.27963
2135.164806,0.28069
2138.68818,0.28179
2142.223201,0.28291
2145.769927,0.28419
2149.328422,0.28532
2152.898735,0.28616
2156.480928,0.28691
2160.075063,0.28779
2163.681197,0.28896
2167.299393,0.29019
2170.929709,0.29124
2174.572208,0.29217
2178.226956,0.29322
2181.894004,0.29442
2185.57342,0.29553
2189.265266,0.2965
2192.969606,0.29743
2196.686503,0.29846
2200.416021,0.29968
2204.158225,0.3011
2207.913183,0.30265
2211.680953,0.30393
2215.461603,0.30474
2219.255201,0.30557
2223.061813,0.30675
2226.881507,0.30804
2230.714349,0.30922
2234.560407,0.31042
2238.419756,0.31195
2242.292454,0.31358
2246.178575,0.315
2250.07819,0.316
2253.991369,0.31672
2257.918183,0.31789
2261.858702,0.3194
2265.813,0.32065
2269.781154,0.32188
2273.763225,0.32314
2277.759293,0.32431
2281.769432,0.32554
2285.793716,0.32679
2289.832221,0.32792
2293.88502,0.3289
2297.952192,0.32983
2302.033816,0.33093
2306.129961,0.33236
2310.240709,0.33354
2314.366139,0.33423
2318.506328,0.33499
2322.661356,0.33624
2326.831304,0.33777
2331.016252,0.33903
2335.216286,0.34013
2339.431477,0.3412
2343.661913,0.34204
2347.907677,0.34293
2352.168852,0.34413
2356.445521,0.34553
2360.737771,0.34694
2365.045686,0.34811
2369.369358,0.34899
2373.708861,0.34979
2378.06429,0.3506
2382.435731,0.35119
2386.823273,0.35175
2391.227005,0.35272
2395.647017,0.35392
2400.0834,0.35526
2404.53625,0.35658
2409.005647,0.35754
2413.491691,0.35834
2417.994473,0.35942
2422.514088,0.36031
2427.050631,0.36082
2431.604196,0.36167
2436.17488,0.36272
2440.762785,0.36338
2445.367997,0.36418
2449.99062,0.36531
2454.630753,0.36613
2459.288496,0.36672
2463.963948,0.36733
2468.657212,0.36794
2473.368389,0.36854
2478.097588,0.3691
2482.844901,0.37003
2487.610438,0.37117
2492.394303,0.37191
2497.196603,0.37253
2502.017445,0.37341
2506.856937,0.37438
2511.715186,0.37512
2516.592308,0.37566
2521.488402,0.37624
2526.403583,0.3769
2531.337964,0.37714
2536.291658,0.37721
2541.264778,0.37764
2546.257439,0.3787
2551.269756,0.37977
2556.301852,0.38051
2561.353831,0.38195
2566.425818,0.38345
2571.517932,0.3837
2576.630293,0.38361
2581.763021,0.38399
2586.91624,0.38469
2592.090072,0.38541
2597.284647,0.38616
2602.500077,0.38685
2607.736495,0.38687
2612.994027,0.38644
2618.272802,0.38621
2623.572949,0.3861
2628.894597,0.38637
2634.237878,0.38642
2639.60293,0.38614
2644.989874,0.38643
2650.398851,0.38713
2655.829995,0.38806
2661.283444,0.38963
2666.759335,0.39139
2672.257807,0.39231
2677.779,0.39236
2683.323062,0.39105
2688.890121,0.38891
2694.480328,0.38731
2700.093828,0.38623
2705.730766,0.38466
2711.39129,0.38274
2717.075548,0.38153
2722.783689,0.37974
2728.515871,0.37661
2734.272233,0.37348
2740.052934,0.36961
2745.85813,0.36598
2751.687977,0.36313
2757.542631,0.35977
2763.422252,0.35588
2769.327,0.35163
2775.257043,0.34806
2781.212529,0.34516
2787.19363,0.34206
2793.200512,0.33916
2799.233341,0.33683
2805.292287,0.3343
2811.377519,0.33201
2817.489208,0.33021
2823.627536,0.3283
2829.79266,0.32665
2835.984766,0.32517
2842.20403,0.32379
2848.450631,0.32293
2854.72475,0.32174
2861.02657,0.31989
2867.356274,0.31826
2873.714055,0.317
2880.100086,0.31609
2886.514561,0.31546
2892.957673,0.3149
2899.429613,0.3144
2905.930575,0.31367
2912.460755,0.31282
2919.020351,0.31224
2925.609569,0.31184
2932.228594,0.3115
2938.877637,0.31121
2945.556904,0.31074
2952.266599,0.3101
2959.006933,0.30991
2965.778115,0.31019
2972.580357,0.31075
2979.413883,0.3114
2986.278891,0.31192
2993.175608,0.31237
3000.104254,0.31264
3007.065051,0.31281
3014.058225,0.31317
3021.084,0.31339
3028.142607,0.31358
3035.234283,0.31415
3042.359245,0.31486
3049.517737,0.31549
3056.709994,0.31598
3063.936258,0.31625
3071.196769,0.31682
3078.491772,0.31741
3085.821513,0.31759
3093.186251,0.31801
3100.586217,0.31888
3108.021674,0.31954
3115.492879,0.32019
3123.000089,0.32124
3130.543567,0.32234
3138.123574,0.32325
3145.740377,0.32418
3153.394256,0.3251
3161.08546,0.32597
3168.814274,0.32669
3176.580974,0.32741
3184.38584,0.32863
3192.229154,0.33
3200.1112,0.33066
3208.032266,0.33146
3215.992653,0.33305
3223.992633,0.33449
3232.032514,0.33567
3240.112594,0.33655
3248.233176,0.33711
3256.394564,0.33791
3264.597068,0.33875
3272.840999,0.33949
3281.126681,0.34019
3289.454413,0.34082
3297.824524,0.34148
3306.237341,0.34223
3314.693189,0.34278
3323.192401,0.34289
3331.735311,0.34293
3340.322256,0.34299
3348.95359,0.3426
3357.629634,0.34174
3366.350748,0.34053
3375.117285,0.33969
3383.929601,0.34
3392.788054,0.3402
3401.693008,0.33923
3410.64483,0.33844
3419.643903,0.33942
3428.690579,0.34211
3437.785247,0.34488
3446.928291,0.34677
3456.120099,0.34798
3465.36106,0.34855
3474.651571,0.34871
3483.99203,0.3486
3493.382855,0.34844
3502.824429,0.34917
3512.317177,0.3511
3521.861515,0.35354
3531.457866,0.35548
3541.106657,0.35649
3550.808317,0.35712
3560.563284,0.35764
3570.372009,0.35805
3580.234914,0.35855
3590.15246,0.35913
3600.125104,0.35968
3610.153306,0.36037
3620.237532,0.36091
3630.378252,0.36108
3640.575942,0.36116
3650.831097,0.36114
3661.144177,0.36115
3671.515689,0.36136
3681.946129,0.36177
3692.436003,0.36232
3702.985818,0.36278
3713.596091,0.36298
3724.267342,0.36303
3735.000113,0.36333
3745.79491,0.36408
3756.652285,0.36466
3767.572784,0.36471
3778.556959,0.36463
3789.605369,0.36459
3800.71858,0.36454
3811.897162,0.36452
3823.141709,0.36442
3834.452778,0.36425
3845.830974,0.36436
3857.276898,0.36464
3868.791155,0.36475
3880.37436,0.36465
3892.027134,0.36433
3903.750106,0.36425
3915.543926,0.36454
3927.409209,0.36451
3939.346621,0.36407
3951.356822,0.36359
3963.44048,0.36331
3975.598271,0.36326
3987.830879,0.36331
4000.138997,0.36322
4012.523342,0.36298
4024.984593,0.36281
4037.523484,0.36281
4050.140742,0.36279
4062.837106,0.36253
4075.613322,0.36212
4088.470144,0.36185
4101.408338,0.36151
4114.428697,0.36101
4127.531971,0.36057
4140.718972,0.36017
4153.990505,0.3599
4167.347385,0.3599
4180.790439,0.3607
4194.320503,0.36389
4207.938425,0.37123
4221.64508,0.38361
4235.441304,0.392
4249.327994,0.38846
4263.306045,0.38549
4277.376359,0.384
4291.539855,0.37949
4305.79746,0.3725
4320.150116,0.36541
4334.598795,0.35966
4349.144426,0.35544
4363.788008,0.35249
4378.530532,0.35076
4393.373006,0.34995
4408.316449,0.34927
4423.361896,0.3485
4438.510393,0.34809
4453.763023,0.34799
4469.120824,0.34777
4484.584908,0.34718
4500.15638,0.34625
4515.836365,0.34512
4531.626,0.34363
4547.52644,0.34149
4563.538854,0.33921
4579.664452,0.3369
4595.904394,0.334
4612.259923,0.33019
4628.732277,0.32592
4645.322713,0.32194
4662.032504,0.31809
4678.862943,0.31367
4695.815342,0.30884
4712.891054,0.30422
4730.091384,0.30008
4747.417723,0.29625
4764.871462,0.29298
4782.45401,0.2899
4800.1668,0.28646
4818.011283,0.28254
4835.988934,0.27855
4854.101273,0.27463
4872.349771,0.27102
4890.735994,0.26791
4909.261506,0.26467
4927.927896,0.26083
4946.736778,0.25742
4965.68979,0.25431
4984.788594,0.25073
5004.034903,0.24723
5023.430384,0.24399
5042.976803,0.24039
5062.675928,0.23639
5082.529556,0.23213
5102.539511,0.22773
5122.707649,0.22337
5143.03585,0.21885
5163.526056,0.21441
5184.180157,0.2112
5205.000154,0.20974
5225.988055,0.20957
5247.145898,0.20985
5268.475756,0.21044
5289.979735,0.21188
5311.659976,0.21398
5333.518684,0.21586
5355.558014,0.21599
5377.780242,0.21405
5400.187657,0.21177
5422.78258,0.21021
5445.567377,0.21009
5468.544451,0.21158
5491.716246,0.21342
5515.085278,0.21478
5538.654014,0.21534
5562.425058,0.21453
5586.401024,0.2121
5610.584574,0.20955
5634.978416,0.20708
5659.585305,0.20444
5684.408043,0.20234
5709.449517,0.20027
5734.712564,0.19682
5760.200171,0.19178
5785.915346,0.18681
5811.861151,0.18282
5838.040701,0.17864
5864.457171,0.1739
5891.11379,0.16694
5918.013883,0.15937
5945.160732,0.15171
5972.557781,0.14504
6000.208507,0.14122
6028.116449,0.13961
6056.285213,0.13835
6084.718472,0.13648
6113.41997,0.13429
6142.393557,0.1319
6171.643046,0.12958
6201.172433,0.12805
6230.985758,0.1276
6261.087133,0.12776
6291.480755,0.1284
6322.1709,0.12992
6353.161929,0.13246
6384.458328,0.13528
6416.064553,0.13723
6447.985267,0.13733
6480.225188,0.13587
6512.789128,0.13335
6545.681997,0.13164
6578.908804,0.13087
6612.47466,0.13039
6646.384825,0.13
6680.644535,0.12981
6715.259268,0.12941
6750.234571,0.12867
6785.576107,0.12715
6821.28966,0.12492
6857.381134,0.12265
6893.856559,0.12041
6930.722144,0.11858
6967.984085,0.11659
7005.648858,0.11419
7043.72303,0.11158
7082.213314,0.1092
7121.126567,0.10759
7160.469802,0.10585
7200.250183,0.10327
7240.47509,0.10022
7281.15191,0.09664
7322.288355,0.0922
7363.892259,0.08733
7405.971636,0.08282
7448.534685,0.07809
7491.589791,0.07278
7535.145539,0.06801
7579.210768,0.06354
7623.794353,0.05917
7668.905555,0.0548
7714.553795,0.05002
7760.74872,0.04508
7807.500211,0.04031
7854.818386,0.03578
7902.713612,0.03155
7951.196573,0.02774
8000.278026,0.02446
8049.969186,0.0216
8100.281485,0.0192
8151.226643,0.01761
8202.816677,0.01679
8255.063908,0.01662
8307.980976,0.01739
8361.580914,0.0188
8415.876885,0.02051
8470.882607,0.02262
8526.612089,0.02457
8583.07971,0.02589
8640.300232,0.02669
8698.288814,0.02719
8757.061026,0.02768
8816.632938,0.02876
8877.020825,0.03129
8938.241648,0.03494
9000.312761,0.03839
9063.252001,0.04068
9127.077709,0.04019
9191.808745,0.03821
9257.464511,0.03769
9324.065051,0.03809
9391.630729,0.03889
9460.182767,0.04075
9529.742923,0.04286
9600.3336,0.0439
9671.977869,0.04367
9744.699495,0.04207
9818.522964,0.03862
9893.473606,0.03471
9969.577237,0.03346
10046.86077,0.03571
10125.35186,0.03926
10205.07902,0.04277
10286.0717,0.04651
10368.36026,0.04988
10451.97605,0.05217
10536.95157,0.05363
10623.32001,0.05412
10711.11603,0.05287
10800.37531,0.04973
10891.13475,0.04644
10983.43249,0.04543
11077.30797,0.04748
11172.80199,0.05037
11269.9569,0.05141
11368.81615,0.05084
11469.42513,0.04992
11571.83069,0.04912
11676.0814,0.0489
11782.22758,0.04964
11890.32139,0.05115
12000.41694,0.05297
12112.5705,0.05543
12226.84001,0.05796
12343.28609,0.05844
12461.97152,0.05616
12582.96151,0.05139
12706.32386,0.04464
12832.12902,0.03817
12960.45029,0.03425
13091.36408,0.03221
13224.94941,0.03048
13361.28907,0.0286
13500.46914,0.02666
13642.57932,0.02551
13787.71312,0.02582
13935.96807,0.02681
14087.44596,0.02666
14242.25324,0.02483
14400.50047,0.02311
14562.30382,0.02273
14727.78452,0.02263
14897.06937,0.02235
15070.29108,0.02238
15247.58859,0.02334
15429.10747,0.02623
15615.00054,0.02954
15805.42735,0.03105
16000.55605,0.03105
16200.56297,0.03161
16405.63335,0.03569
16615.96195,0.04166
16831.75363,0.04512
17053.22403,0.04649
17280.60061,0.04663
17514.12221,0.04592
17754.04165,0.0451
18000.62552,0.04517
18254.15542,0.04734
18514.92902,0.04915
18783.26128,0.04903
19059.48566,0.05056
19343.95592,0.05549
19637.04612,0.06186
19939.15447,0.06438
20250.70371,0.05938
20572.1434,0.05249
20903.95211,0.04823
21246.63979,0.0447
21600.75039,0.04111
21966.86522,0.0379
22345.60422,0.03585
22737.6323,0.03778
23143.66139,0.04502
23564.45516,0.05628
24000.83388,0.05982
24453.67973,0.04736
24923.94272,0.0337
25412.64804,0.00896
