Database of Origin,University of Winnipeg Spectrophotometer Facility
Sample Description,Carbonates and Oxolates -  D&P Spectra Reflectance spectra
Other Information,in air reference no window
Date Added,2018-08-06 21:11:30.575368

Data ID,FTIR_CARB_39_10     
Sample ID,CRB215
Mineral Name,Hydromagnesite
Locality,Atlin/ British Columbia/ Canada
Grain Size,<45 um
Viewing Geometry,i=35/ e=0
Resolution,~3 cm-1
Formula,Mg5(CO3)4(OH)2*4(H2O)
Composition,XRD shows almost all hydromagnesite/ with a bit of magnesite.

Wavelength
2.001142,0.30885625
2.002307,0.30979244
2.003474,0.31035739
2.004643,0.31087205
2.005812,0.31140147
2.006983,0.3118629
2.008155,0.31223432
2.009329,0.31221165
2.010504,0.31239686
2.01168,0.31286928
2.012858,0.31343574
2.014037,0.31426372
2.015217,0.31445655
2.016399,0.31439222
2.017582,0.31514864
2.018766,0.31613525
2.019952,0.31672903
2.021139,0.31686786
2.022328,0.31699395
2.023518,0.31738248
2.024709,0.31784131
2.025902,0.31859328
2.027096,0.31918765
2.028291,0.31946122
2.029488,0.32004034
2.030686,0.32083052
2.031886,0.32186657
2.033087,0.32247703
2.034289,0.32252389
2.035493,0.32288091
2.036698,0.32355047
2.037905,0.32434012
2.039113,0.3249441
2.040322,0.32552237
2.041533,0.32604246
2.042746,0.32653722
2.043959,0.32696882
2.045174,0.32683982
2.046391,0.32666399
2.047609,0.32724015
2.048828,0.32824778
2.050049,0.32862712
2.051271,0.32874076
2.052495,0.32969068
2.05372,0.33064777
2.054947,0.33069343
2.056175,0.33065722
2.057404,0.33091779
2.058635,0.33127456
2.059867,0.33152843
2.061101,0.33162542
2.062336,0.33226509
2.063573,0.33293986
2.064811,0.33318709
2.066051,0.33346308
2.067292,0.33371928
2.068534,0.33409986
2.069778,0.33401903
2.071024,0.33370819
2.072271,0.33396551
2.073519,0.33432255
2.074769,0.33470454
2.07602,0.33506499
2.077273,0.33543569
2.078528,0.33587852
2.079784,0.33652243
2.081041,0.3371296
2.0823,0.33739674
2.08356,0.33759845
2.084822,0.33789726
2.086085,0.33851088
2.08735,0.33902377
2.088617,0.33903186
2.089885,0.33901569
2.091154,0.33937348
2.092425,0.33977642
2.093697,0.34004561
2.094971,0.34025746
2.096247,0.34043922
2.097524,0.34103017
2.098803,0.34196356
2.100083,0.34253692
2.101364,0.34306585
2.102648,0.34393223
2.103932,0.34461961
2.105219,0.34533367
2.106506,0.3464131
2.107796,0.34727085
2.109087,0.34777598
2.110379,0.34829741
2.111673,0.34881024
2.112969,0.34926228
2.114266,0.34989814
2.115565,0.35050826
2.116865,0.35084978
2.118167,0.35134602
2.119471,0.35180772
2.120776,0.3520663
2.122082,0.35231858
2.123391,0.35257868
2.1247,0.35255787
2.126012,0.35211169
2.127325,0.3517917
2.12864,0.35156039
2.129956,0.35162108
2.131274,0.3525318
2.132593,0.35345844
2.133914,0.35370727
2.135237,0.35383076
2.136561,0.35419041
2.137887,0.35445303
2.139214,0.35484213
2.140544,0.3555046
2.141874,0.3557
2.143207,0.35574787
2.144541,0.35581845
2.145876,0.35564772
2.147214,0.35575915
2.148553,0.35583625
2.149893,0.35573987
2.151235,0.35614207
2.152579,0.35654884
2.153925,0.35620358
2.155272,0.35570485
2.156621,0.3558895
2.157972,0.35649701
2.159324,0.35671035
2.160678,0.35660199
2.162033,0.35658189
2.16339,0.35653889
2.164749,0.35665408
2.16611,0.35707498
2.167472,0.35718938
2.168836,0.35699987
2.170202,0.35719281
2.171569,0.35745702
2.172938,0.3572658
2.174309,0.35689306
2.175682,0.35686925
2.177056,0.35690241
2.178432,0.35665714
2.179809,0.35669535
2.181189,0.35696539
2.18257,0.35693103
2.183952,0.35643209
2.185337,0.35632628
2.186723,0.35688374
2.188111,0.35695825
2.189501,0.3567894
2.190892,0.35699028
2.192285,0.35720842
2.19368,0.35691228
2.195077,0.35630239
2.196476,0.35620553
2.197876,0.3564158
2.199278,0.35624983
2.200682,0.35543466
2.202087,0.35357398
2.203494,0.35171811
2.204903,0.35196262
2.206314,0.35408804
2.207727,0.35608195
2.209141,0.35713873
2.210557,0.3577042
2.211975,0.35777058
2.213395,0.35780449
2.214817,0.35776388
2.21624,0.35739579
2.217665,0.35736299
2.219092,0.35762781
2.220521,0.35798477
2.221952,0.35817671
2.223384,0.35784604
2.224818,0.3574346
2.226254,0.35758771
2.227692,0.35764543
2.229132,0.35721906
2.230574,0.35678645
2.232017,0.35631721
2.233462,0.35609467
2.23491,0.35597621
2.236359,0.35521981
2.237809,0.35432116
2.239262,0.35369918
2.240717,0.35291074
2.242173,0.35222625
2.243631,0.35160774
2.245092,0.35059507
2.246554,0.34939434
2.248017,0.34807669
2.249483,0.34670754
2.250951,0.34573057
2.252421,0.34504778
2.253892,0.34436487
2.255365,0.34405969
2.256841,0.34424876
2.258318,0.34469363
2.259797,0.34490361
2.261278,0.34463816
2.262761,0.34440566
2.264246,0.34432099
2.265732,0.34384922
2.267221,0.34303399
2.268712,0.34242429
2.270204,0.34190517
2.271699,0.34125105
2.273195,0.34051759
2.274694,0.3399431
2.276194,0.33982853
2.277696,0.33987169
2.279201,0.33990591
2.280707,0.34014703
2.282215,0.34052139
2.283725,0.34083943
2.285237,0.340889
2.286752,0.34093278
2.288268,0.34086918
2.289786,0.3407861
2.291306,0.34071503
2.292828,0.34050781
2.294352,0.34075748
2.295878,0.34086111
2.297406,0.34037005
2.298936,0.33988871
2.300468,0.33941212
2.302002,0.33871143
2.303539,0.33803306
2.305077,0.33704552
2.306617,0.33543249
2.308159,0.33386319
2.309703,0.33256976
2.31125,0.33108004
2.312798,0.32913263
2.314348,0.32747686
2.315901,0.32651359
2.317455,0.32531524
2.319012,0.3239926
2.320571,0.32348182
2.322131,0.32350003
2.323694,0.32311622
2.325259,0.32245011
2.326826,0.32233019
2.328395,0.32219378
2.329966,0.32147922
2.33154,0.32061565
2.333115,0.31941862
2.334692,0.31788725
2.336272,0.31672177
2.337854,0.3162189
2.339437,0.31581667
2.341023,0.31528252
2.342611,0.31499326
2.344201,0.31459687
2.345794,0.31405379
2.347388,0.31387363
2.348985,0.31356217
2.350583,0.31285138
2.352184,0.31222959
2.353787,0.31184316
2.355393,0.31185287
2.357,0.31177709
2.358609,0.3113108
2.360221,0.3111467
2.361835,0.3112611
2.363451,0.31137202
2.365069,0.31174951
2.36669,0.31242022
2.368312,0.31287549
2.369937,0.31315505
2.371564,0.3133633
2.373194,0.31322598
2.374825,0.31307146
2.376459,0.31298646
2.378095,0.31291327
2.379733,0.31273976
2.381373,0.31243576
2.383016,0.31232905
2.384661,0.31228945
2.386308,0.3120747
2.387957,0.31182685
2.389609,0.31177027
2.391263,0.31155663
2.392919,0.31100335
2.394577,0.31071183
2.396238,0.31068686
2.397901,0.31032551
2.399566,0.30969582
2.401233,0.30911292
2.402903,0.30864473
2.404575,0.30806062
2.40625,0.30713416
2.407926,0.30624521
2.409606,0.30552346
2.411287,0.30466657
2.412971,0.30364001
2.414657,0.30261453
2.416345,0.30170012
2.418036,0.30079952
2.419729,0.29971803
2.421424,0.29897468
2.423122,0.29900181
2.424822,0.29882935
2.426524,0.29812605
2.428229,0.29788254
2.429936,0.29829443
2.431646,0.29866369
2.433358,0.29890616
2.435072,0.29944511
2.436789,0.29986195
2.438508,0.2998939
2.440229,0.30023235
2.441953,0.30088858
2.443679,0.30141053
2.445408,0.30197884
2.447139,0.30278714
2.448873,0.30350334
2.450609,0.30389205
2.452347,0.30436116
2.454088,0.30495755
2.455831,0.30527874
2.457577,0.30549049
2.459325,0.30558971
2.461076,0.30531491
2.462829,0.30462924
2.464585,0.30369891
2.466343,0.30307372
2.468104,0.30267767
2.469867,0.30192274
2.471632,0.30085032
2.4734,0.2996275
2.475171,0.29848801
2.476944,0.29740553
2.47872,0.29613348
2.480498,0.29514312
2.482278,0.29448499
2.484062,0.2935739
2.485847,0.29273689
2.487636,0.29239706
2.489427,0.29213161
2.49122,0.29184094
2.493016,0.29155864
2.494814,0.29134675
2.496615,0.29123115
2.498419,0.29092966
2.500225,0.29053252
2.502034,0.29028146
2.503845,0.29016194
2.505659,0.28982175
2.507476,0.28919138
2.509295,0.28847843
2.511117,0.28772039
2.512942,0.28685359
2.514769,0.28571784
2.516598,0.28455003
2.518431,0.28366328
2.520266,0.28308355
2.522103,0.28292447
2.523944,0.28301415
2.525787,0.28293998
2.527632,0.28279846
2.52948,0.28299401
2.531331,0.2835472
2.533185,0.28447377
2.535041,0.28556317
2.5369,0.28631334
2.538762,0.28709756
2.540627,0.28831697
2.542494,0.28936607
2.544364,0.29002597
2.546236,0.29075656
2.548112,0.29122379
2.54999,0.29162724
2.55187,0.29250974
2.553754,0.29271636
2.55564,0.29221011
2.557529,0.29252752
2.559421,0.29429945
2.561316,0.29674945
2.563213,0.29731273
2.565113,0.29570566
2.567016,0.29478362
2.568922,0.29536266
2.570831,0.29615457
2.572742,0.29699427
2.574656,0.29793013
2.576573,0.29815394
2.578493,0.29748607
2.580416,0.29705579
2.582342,0.29780282
2.58427,0.29801063
2.586201,0.29767448
2.588135,0.29746849
2.590072,0.29673167
2.592012,0.29786386
2.593955,0.30213732
2.5959,0.3019536
2.597849,0.2977297
2.5998,0.29650821
2.601755,0.29767964
2.603712,0.29981011
2.605672,0.30068756
2.607635,0.29906005
2.609601,0.29719286
2.61157,0.29584206
2.613542,0.29542374
2.615517,0.29654638
2.617495,0.29731727
2.619475,0.29618541
2.621459,0.29357007
2.623446,0.2914311
2.625435,0.29150011
2.627428,0.29236374
2.629424,0.29283495
2.631423,0.29216637
2.633424,0.29007341
2.635429,0.28838009
2.637437,0.28717737
2.639447,0.28648734
2.641461,0.28621753
2.643478,0.28597937
2.645498,0.28559148
2.647521,0.28430085
2.649547,0.28311744
2.651576,0.28294358
2.653609,0.28236434
2.655644,0.28080647
2.657682,0.2797996
2.659724,0.2795603
2.661768,0.27888194
2.663816,0.27984039
2.665867,0.28231278
2.667921,0.2814953
2.669978,0.27986885
2.672038,0.27547396
2.674102,0.27149286
2.676168,0.27188319
2.678238,0.27071458
2.680311,0.2653073
2.682387,0.26205757
2.684467,0.26087333
2.686549,0.25879135
2.688635,0.25506258
2.690724,0.25200057
2.692816,0.25148529
2.694911,0.24994043
2.69701,0.24324065
2.699112,0.23719153
2.701217,0.23296226
2.703325,0.22802468
2.705437,0.22326775
2.707552,0.22117679
2.70967,0.22113569
2.711791,0.2161556
2.713916,0.20760715
2.716044,0.20125153
2.718175,0.19933397
2.72031,0.20033383
2.722448,0.1971441
2.724589,0.19078933
2.726734,0.18135521
2.728882,0.17148599
2.731034,0.16146929
2.733188,0.14861881
2.735347,0.12444293
2.737508,0.09089229
2.739673,0.05995073
2.741841,0.04850013
2.744013,0.05562456
2.746188,0.06743551
2.748367,0.08565408
2.750549,0.10339022
2.752734,0.11498801
2.754923,0.1218369
2.757115,0.12325245
2.759311,0.12086824
2.76151,0.11840419
2.763713,0.11511241
2.765919,0.11108322
2.768129,0.10728225
2.770342,0.10361472
2.772559,0.09955238
2.774779,0.09594826
2.777003,0.09285146
2.77923,0.08956748
2.781461,0.08616511
2.783696,0.08289738
2.785934,0.08023299
2.788175,0.07759202
2.79042,0.07485338
2.792669,0.07243234
2.794922,0.07027015
2.797178,0.06803884
2.799437,0.06579493
2.8017,0.06375197
2.803967,0.0609001
2.806238,0.0582337
2.808512,0.0562932
2.810789,0.0536045
2.813071,0.05072564
2.815356,0.04799422
2.817645,0.04504123
2.819937,0.04185429
2.822233,0.03886003
2.824533,0.03615213
2.826837,0.03322925
2.829144,0.02993037
2.831455,0.02669425
2.83377,0.0239692
2.836089,0.02160545
2.838411,0.01986254
2.840737,0.01865811
2.843067,0.01777831
2.845401,0.01749745
2.847739,0.0177974
2.85008,0.01826808
2.852425,0.01886052
2.854774,0.01970897
2.857127,0.02031396
2.859484,0.02083293
2.861844,0.02142502
2.864209,0.02157685
2.866577,0.02135944
2.868949,0.02102137
2.871325,0.02066885
2.873705,0.02033801
2.876089,0.01993405
2.878477,0.01952088
2.880869,0.01898183
2.883265,0.01827118
2.885664,0.01767761
2.888068,0.01746693
2.890476,0.01745802
2.892887,0.01735024
2.895303,0.0170736
2.897723,0.01682956
2.900146,0.01684064
2.902574,0.01704929
2.905006,0.01714382
2.907441,0.01710805
2.909881,0.01707352
2.912325,0.01737807
2.914773,0.01796301
2.917225,0.0188726
2.919681,0.01919702
2.922142,0.01904164
2.924606,0.01894576
2.927075,0.01867773
2.929547,0.01876939
2.932024,0.01923069
2.934505,0.01965922
2.93699,0.02005537
2.939479,0.02049049
2.941973,0.02075743
2.944471,0.02111723
2.946973,0.02244712
2.949479,0.02307203
2.951989,0.02241006
2.954504,0.02294483
2.957023,0.02358026
2.959546,0.0230994
2.962073,0.02335793
2.964605,0.02408387
2.967141,0.02446324
2.969681,0.0248929
2.972226,0.02595424
2.974775,0.02768768
2.977328,0.02852235
2.979886,0.02800211
2.982448,0.02773744
2.985015,0.02816083
2.987586,0.02855382
2.990161,0.02931095
2.99274,0.03014243
2.995324,0.02999988
2.997913,0.0297981
3.000506,0.0306338
3.003103,0.03160431
3.005705,0.03151693
3.008312,0.03110288
3.010922,0.03125153
3.013538,0.03194709
3.016158,0.03238932
3.018782,0.03199575
3.021411,0.03183294
3.024044,0.03226848
3.026683,0.03268014
3.029325,0.03362862
3.031972,0.03539475
3.034624,0.03557328
3.037281,0.03399009
3.039942,0.0335405
3.042607,0.03444749
3.045278,0.03505508
3.047953,0.0344471
3.050632,0.03363813
3.053317,0.03363676
3.056006,0.03387134
3.0587,0.03407183
3.061398,0.03462046
3.064101,0.0355605
3.066809,0.03559656
3.069522,0.03460349
3.072239,0.03388905
3.074962,0.03363337
3.077689,0.0338026
3.080421,0.03394341
3.083157,0.03385242
3.085899,0.03425264
3.088645,0.0346237
3.091396,0.03432313
3.094153,0.03404614
3.096914,0.03426846
3.099679,0.03494762
3.10245,0.03507827
3.105226,0.03408461
3.108007,0.0332977
3.110792,0.03320591
3.113583,0.03317162
3.116378,0.03289132
3.119179,0.03267266
3.121985,0.03258048
3.124795,0.03236156
3.127611,0.03225219
3.130431,0.03225936
3.133257,0.03220982
3.136088,0.03228468
3.138924,0.03222901
3.141765,0.03204896
3.144611,0.03210903
3.147462,0.03223845
3.150319,0.03225307
3.15318,0.03210245
3.156047,0.03193642
3.158919,0.03200997
3.161796,0.03213476
3.164678,0.03206131
3.167566,0.03190968
3.170458,0.03171347
3.173356,0.03169924
3.17626,0.03204554
3.179168,0.03324289
3.182082,0.03403333
3.185001,0.03292135
3.187926,0.0320625
3.190856,0.03259263
3.193791,0.03351172
3.196731,0.03351172
3.199677,0.03267635
3.202629,0.03232293
3.205585,0.03229811
3.208548,0.03223314
3.211515,0.03324965
3.214488,0.03538698
3.217467,0.03638104
3.220451,0.03509565
3.223441,0.03374129
3.226436,0.03371153
3.229437,0.03319765
3.232443,0.0326701
3.235455,0.03293258
3.238472,0.03261783
3.241495,0.03241335
3.244523,0.03317262
3.247558,0.0338299
3.250598,0.03442114
3.253643,0.03527437
3.256694,0.03579225
3.259751,0.03482505
3.262814,0.03256391
3.265882,0.03183231
3.268956,0.03275214
3.272036,0.03284159
3.275122,0.03208323
3.278213,0.03169587
3.28131,0.0317079
3.284413,0.03205916
3.287522,0.03246235
3.290637,0.03247775
3.293757,0.03324622
3.296884,0.03416344
3.300016,0.0331505
3.303155,0.03242381
3.306299,0.03293528
3.309449,0.03242846
3.312605,0.03177176
3.315767,0.03198386
3.318936,0.03203694
3.32211,0.03214213
3.32529,0.03347352
3.328476,0.03517826
3.331669,0.03468612
3.334867,0.0324868
3.338072,0.03120217
3.341282,0.0312271
3.344499,0.03186216
3.347722,0.03245839
3.350952,0.03292566
3.354187,0.03265024
3.357429,0.03148446
3.360677,0.03135734
3.363931,0.03245721
3.367191,0.03288955
3.370458,0.03248469
3.373731,0.03206748
3.37701,0.031426
3.380296,0.03096032
3.383588,0.03116264
3.386886,0.03148849
3.390191,0.03147585
3.393502,0.03179698
3.39682,0.03265371
3.400144,0.03316388
3.403475,0.03401621
3.406812,0.03488707
3.410156,0.03395147
3.413506,0.032644
3.416862,0.03261385
3.420226,0.03355676
3.423596,0.03476316
3.426972,0.03495505
3.430355,0.03466758
3.433745,0.0352212
3.437141,0.0366219
3.440545,0.03881433
3.443954,0.04008924
3.447371,0.03876457
3.450794,0.03731304
3.454224,0.03761084
3.457661,0.03823354
3.461105,0.03890946
3.464556,0.03990906
3.468013,0.04020179
3.471477,0.04009333
3.474948,0.04045313
3.478426,0.04108995
3.481911,0.04164568
3.485403,0.04219405
3.488902,0.04400205
3.492408,0.04561619
3.495921,0.04498043
3.499441,0.04425019
3.502968,0.04471859
3.506502,0.04586397
3.510043,0.04678779
3.513592,0.04710096
3.517147,0.04778181
3.52071,0.0489264
3.52428,0.04971498
3.527857,0.05011229
3.531441,0.05177151
3.535032,0.05379253
3.538631,0.05371201
3.542237,0.05305685
3.545851,0.05326467
3.549471,0.05365341
3.553099,0.05412866
3.556735,0.05476973
3.560378,0.05550236
3.564028,0.05630049
3.567686,0.05735494
3.571351,0.05821418
3.575024,0.05833322
3.578704,0.05864667
3.582392,0.05988261
3.586088,0.06100167
3.589791,0.06120361
3.593501,0.06185976
3.59722,0.06300969
3.600946,0.06299272
3.604679,0.06265835
3.608421,0.06293942
3.61217,0.06389146
3.615926,0.06526732
3.619691,0.06569926
3.623463,0.06572633
3.627244,0.066287
3.631032,0.06678829
3.634828,0.06721737
3.638632,0.06789411
3.642444,0.06855152
3.646263,0.06933006
3.650091,0.0704691
3.653927,0.07098025
3.657771,0.07076821
3.661623,0.07106168
3.665483,0.07195972
3.669351,0.07265243
3.673227,0.0730135
3.677111,0.0738569
3.681004,0.07517229
3.684905,0.07582821
3.688814,0.07585653
3.692731,0.07605722
3.696656,0.07655483
3.70059,0.07711112
3.704532,0.07760576
3.708483,0.07807699
3.712442,0.07858525
3.716409,0.07912104
3.720385,0.07963162
3.72437,0.0800777
3.728362,0.08032254
3.732364,0.08043035
3.736374,0.08070241
3.740392,0.08135589
3.744419,0.08203659
3.748455,0.0821107
3.752499,0.0819112
3.756553,0.08168264
3.760614,0.08133148
3.764685,0.08123703
3.768764,0.08132163
3.772853,0.08147735
3.77695,0.08176765
3.781056,0.0819659
3.78517,0.08216243
3.789294,0.08247265
3.793427,0.08267136
3.797568,0.08288618
3.801719,0.08347256
3.805879,0.08430235
3.810048,0.08510097
3.814225,0.08601289
3.818412,0.0873147
3.822609,0.0887205
3.826814,0.08981293
3.831029,0.09082594
3.835252,0.091659
3.839486,0.09203667
3.843728,0.09227916
3.84798,0.09231124
3.852241,0.09205838
3.856512,0.09196768
3.860792,0.09218422
3.865081,0.09258254
3.86938,0.09296975
3.873689,0.09341853
3.878007,0.09407596
3.882334,0.09475228
3.886672,0.09541179
3.891019,0.09615667
3.895375,0.09706358
3.899742,0.09797721
3.904118,0.0988296
3.908504,0.09984671
3.9129,0.10082557
3.917305,0.10141262
3.921721,0.10170417
3.926146,0.10200998
3.930581,0.10235785
3.935027,0.10263363
3.939482,0.10311522
3.943948,0.10424494
3.948423,0.10616264
3.952909,0.10890793
3.957405,0.1123357
3.961911,0.11594302
3.966427,0.1193666
3.970954,0.12253786
3.975491,0.1255016
3.980038,0.12823723
3.984595,0.13062973
3.989163,0.13271606
3.993742,0.13462205
3.99833,0.13634822
4.00293,0.13783794
4.00754,0.13911365
4.01216,0.14029201
4.016791,0.14149125
4.021433,0.1427393
4.026086,0.14404384
4.030749,0.14532969
4.035423,0.14650838
4.040108,0.14750841
4.044804,0.14847335
4.04951,0.14964977
4.054228,0.15077338
4.058956,0.15164301
4.063695,0.15260891
4.068446,0.15378709
4.073207,0.15480989
4.07798,0.15570974
4.082764,0.15667913
4.087559,0.15760409
4.092365,0.15851608
4.097183,0.15947553
4.102012,0.16051286
4.106852,0.16159346
4.111703,0.16255335
4.116566,0.16349454
4.121441,0.16456137
4.126327,0.16569373
4.131224,0.16688627
4.136133,0.16806623
4.141054,0.16913769
4.145987,0.17022974
4.150931,0.17147015
4.155887,0.17270364
4.160854,0.17393584
4.165834,0.17528455
4.170826,0.17657798
4.175829,0.1778441
4.180844,0.17915937
4.185872,0.18055831
4.190911,0.1826906
4.195963,0.18611673
4.201026,0.19129299
4.206102,0.19886781
4.21119,0.2084561
4.216291,0.21883542
4.221404,0.22881551
4.226529,0.23802352
4.231666,0.24613191
4.236816,0.25155541
4.241979,0.25277155
4.247154,0.2489271
4.252341,0.23816022
4.257542,0.22995029
4.262754,0.23460293
4.26798,0.24591972
4.273219,0.25041841
4.27847,0.25024739
4.283734,0.25044034
4.289011,0.25198863
4.294301,0.2523026
4.299604,0.25106716
4.30492,0.2508691
4.31025,0.24962535
4.315592,0.24625046
4.320948,0.24344759
4.326317,0.2418532
4.331699,0.24006378
4.337095,0.23815967
4.342504,0.23696823
4.347926,0.23665672
4.353362,0.23690382
4.358811,0.23739433
4.364275,0.23809367
4.369751,0.23887881
4.375242,0.23971782
4.380746,0.24091125
4.386264,0.24272152
4.391796,0.24485911
4.397342,0.24688505
4.402902,0.24887704
4.408476,0.25094873
4.414064,0.25296268
4.419666,0.25490493
4.425282,0.25690623
4.430913,0.25884727
4.436558,0.26051416
4.442217,0.26222134
4.447891,0.26415669
4.453579,0.26614228
4.459281,0.26812229
4.464998,0.26992577
4.47073,0.27160233
4.476477,0.27335753
4.482238,0.27520087
4.488014,0.2770111
4.493805,0.27883893
4.499611,0.28081213
4.505431,0.28284512
4.511267,0.28495324
4.517118,0.28700122
4.522984,0.28885114
4.528865,0.29083629
4.534762,0.29291127
4.540674,0.29470232
4.546601,0.29631897
4.552543,0.29805544
4.558502,0.29992232
4.564475,0.3016477
4.570465,0.30341605
4.57647,0.30539117
4.582491,0.30732141
4.588527,0.30922011
4.59458,0.31110479
4.600648,0.3129261
4.606732,0.31479773
4.612833,0.31669083
4.618949,0.31863469
4.625082,0.32069377
4.631231,0.32267422
4.637397,0.32461405
4.643578,0.32657352
4.649777,0.32847801
4.655991,0.33040974
4.662223,0.33236432
4.668471,0.33449774
4.674735,0.3368727
4.681017,0.33903921
4.687315,0.34093487
4.69363,0.34290764
4.699962,0.34508262
4.706312,0.34728901
4.712678,0.3494111
4.719062,0.35170323
4.725463,0.35408112
4.731881,0.35613925
4.738316,0.35803626
4.744769,0.36006772
4.75124,0.36217679
4.757728,0.36422411
4.764234,0.36615552
4.770758,0.36812685
4.777299,0.37044086
4.783859,0.37298611
4.790436,0.37512201
4.797032,0.37686392
4.803645,0.3786553
4.810277,0.38053051
4.816927,0.38253001
4.823596,0.38465023
4.830283,0.38674449
4.836988,0.38947717
4.843712,0.39207519
4.850455,0.39319324
4.857216,0.39429175
4.863996,0.3960345
4.870795,0.39771329
4.877613,0.39937667
4.884451,0.40132983
4.891307,0.40389449
4.898182,0.40631958
4.905077,0.40753229
4.911991,0.40869201
4.918925,0.41039385
4.925878,0.41203172
4.932851,0.41388872
4.939844,0.41557798
4.946856,0.41775864
4.953888,0.42134004
4.960941,0.42309443
4.968013,0.4225541
4.975105,0.42336625
4.982218,0.42513253
4.989351,0.4263946
4.996504,0.42791233
5.003678,0.42953056
5.010872,0.43288696
5.018087,0.43845728
5.025323,0.44021017
5.03258,0.43856597
5.039857,0.43860703
5.047156,0.44010234
5.054475,0.44184248
5.061816,0.44351524
5.069179,0.4453928
5.076562,0.44972025
5.083967,0.45379307
5.091394,0.45333584
5.098842,0.45295678
5.106312,0.45483031
5.113804,0.45673194
5.121318,0.4581396
5.128854,0.4597698
5.136412,0.46451646
5.143992,0.47212756
5.151595,0.47273782
5.15922,0.46808989
5.166868,0.46811597
5.174538,0.47027382
5.182231,0.47143345
5.189947,0.47539325
5.197686,0.48241307
5.205448,0.48816158
5.213233,0.49033922
5.221041,0.48635691
5.228873,0.48546083
5.236728,0.48973426
5.244607,0.48979297
5.25251,0.48887107
5.260436,0.49011498
5.268386,0.49371514
5.27636,0.49774528
5.284358,0.50230336
5.292381,0.50593909
5.300428,0.50289935
5.308499,0.50008139
5.316595,0.50086801
5.324715,0.50168808
5.33286,0.502754
5.341031,0.51364175
5.349226,0.52957181
5.357446,0.52436649
5.365692,0.51269131
5.373962,0.5124301
5.382259,0.514234
5.390581,0.51506543
5.398928,0.51795705
5.407302,0.5269299
5.415701,0.5447428
5.424127,0.55042513
5.432579,0.53668476
5.441057,0.53139544
5.449561,0.53576686
5.458092,0.54746279
5.46665,0.56010395
5.475234,0.55695712
5.483846,0.54675225
5.492484,0.53665509
5.50115,0.53369959
5.509843,0.53490033
5.518564,0.53665937
5.527312,0.53341861
5.536087,0.52598666
5.544891,0.52667797
5.553723,0.52238311
5.562582,0.50889288
5.57147,0.51553909
5.580387,0.57149727
5.589332,0.60735072
5.598305,0.61125717
5.607307,0.60586943
5.616339,0.60284918
5.625399,0.60218842
5.634489,0.61464413
5.643607,0.62352582
5.652756,0.60932071
5.661934,0.59747335
5.671142,0.60135513
5.680379,0.60584125
5.689647,0.60385814
5.698945,0.60797614
5.708274,0.6250794
5.717633,0.63078951
5.727022,0.62200148
5.736443,0.62327996
5.745894,0.6267585
5.755377,0.63650558
5.76489,0.65206736
5.774436,0.63832109
5.784012,0.6170909
5.793621,0.61090043
5.803262,0.61838292
5.812934,0.6475027
5.822639,0.67012242
5.832376,0.64859859
5.842146,0.63005155
5.851948,0.63825464
5.861783,0.65517513
5.871652,0.67627322
5.881553,0.69614496
5.891488,0.68556902
5.901457,0.65642316
5.911459,0.64422665
5.921495,0.66114145
5.931565,0.69412358
5.94167,0.68775407
5.951809,0.66400383
5.961982,0.6682431
5.97219,0.67892123
5.982433,0.68447444
5.992711,0.67585788
6.003025,0.66693122
6.013374,0.66873001
6.023759,0.66357234
6.034179,0.6866307
6.044636,0.72682263
6.055129,0.71813959
6.065658,0.71123163
6.076224,0.6987926
6.086826,0.67677553
6.097466,0.69081575
6.108143,0.71720724
6.118857,0.70144577
6.129609,0.68438133
6.140398,0.6930455
6.151226,0.70379734
6.162091,0.70239282
6.172996,0.70641218
6.183938,0.71143351
6.19492,0.69905289
6.20594,0.69473859
6.217,0.69701565
6.228099,0.69623874
6.239237,0.6964155
6.250416,0.69640934
6.261635,0.69906674
6.272893,0.70154225
6.284193,0.70180332
6.295533,0.70277444
6.306914,0.7042897
6.318336,0.7079735
6.329799,0.72549767
6.341304,0.73823716
6.352851,0.73264015
6.36444,0.73724797
6.376071,0.73692021
6.387745,0.73486243
6.399461,0.7666497
6.411221,0.80128544
6.423023,0.7767425
6.434869,0.75163544
6.446759,0.74632794
6.458693,0.75262849
6.470671,0.77977691
6.482693,0.80925794
6.49476,0.79322902
6.506872,0.77214197
6.519029,0.76874712
6.531231,0.76537617
6.54348,0.77388967
6.555774,0.79225481
6.568114,0.80275008
6.580501,0.79853578
6.592934,0.78636157
6.605415,0.78129529
6.617943,0.80354188
6.630518,0.82256759
6.643141,0.79086077
6.655812,0.77461411
6.668532,0.78541113
6.6813,0.78237927
6.694117,0.78260491
6.706983,0.79596949
6.719899,0.78835489
6.732864,0.77437842
6.745879,0.77376142
6.758945,0.78258813
6.772062,0.80170866
6.785229,0.80640443
6.798448,0.78853686
6.811718,0.78532869
6.825039,0.78795054
6.838413,0.79546844
6.85184,0.81900959
6.865319,0.81166396
6.878851,0.78964597
6.892437,0.7889581
6.906076,0.78943552
6.919769,0.78324031
6.933517,0.7868747
6.947319,0.80243641
6.961176,0.80496726
6.975089,0.79834311
6.989057,0.7981782
7.003081,0.79875325
7.017161,0.80408388
7.031298,0.81700637
7.045492,0.81927412
7.059743,0.80713884
7.074052,0.80158884
7.088419,0.80374181
7.102845,0.8078483
7.117329,0.81072146
7.131872,0.81621594
7.146475,0.82591797
7.161137,0.82661172
7.17586,0.82019469
7.190643,0.82193184
7.205487,0.82425021
7.220393,0.82029109
7.23536,0.82071289
7.25039,0.82671102
7.265481,0.8321238
7.280636,0.83100221
7.295854,0.82844106
7.311135,0.83232107
7.326481,0.83929438
7.341891,0.83848318
7.357366,0.83415635
7.372906,0.83423335
7.388512,0.83533897
7.404184,0.83655824
7.419922,0.83756807
7.435728,0.84163013
7.451601,0.84879757
7.467541,0.84911224
7.48355,0.84456485
7.499628,0.84363638
7.515774,0.84479553
7.53199,0.84582419
7.548277,0.84783446
7.564633,0.85100895
7.581061,0.85297759
7.59756,0.85345273
7.614131,0.85349435
7.630774,0.85336023
7.647491,0.85379989
7.66428,0.85467703
7.681143,0.85586733
7.69808,0.85716314
7.715093,0.85812541
7.73218,0.85926754
7.749343,0.86056377
7.766583,0.86121898
7.783899,0.86178906
7.801292,0.86265126
7.818764,0.86353934
7.836313,0.86494303
7.853942,0.86655472
7.871649,0.8676965
7.889437,0.86871943
7.907305,0.87003424
7.925254,0.87113147
7.943285,0.87148101
7.961398,0.87173649
7.979594,0.87236781
7.997872,0.87331623
8.016235,0.87440474
8.034682,0.87519416
8.053214,0.87587224
8.071832,0.87662688
8.090535,0.87732589
8.109326,0.87826224
8.128204,0.87935552
8.147169,0.880114
8.166224,0.88071495
8.185368,0.88155252
8.204601,0.88236724
8.223925,0.88314408
8.24334,0.88386637
8.262847,0.88444204
8.282446,0.8851727
8.302139,0.88595575
8.321925,0.88668864
8.341805,0.8874281
8.361781,0.88823626
8.381852,0.88912251
8.40202,0.8899581
8.422285,0.8907485
8.442648,0.89131735
8.463109,0.89155103
8.48367,0.89187955
8.504331,0.89242831
8.525092,0.89293953
8.545955,0.8934509
8.566921,0.89401689
8.587989,0.89460249
8.609161,0.89522204
8.630437,0.8958859
8.651819,0.8965673
8.673307,0.89723778
8.694902,0.89790088
8.716604,0.89857792
8.738415,0.89936354
8.760335,0.90021051
8.782365,0.90083258
8.804507,0.90118838
8.82676,0.90161031
8.849125,0.9022902
8.871604,0.90288003
8.894198,0.90319923
8.916907,0.90365102
8.939732,0.90440211
8.962673,0.90505081
8.985733,0.90554463
9.008912,0.90619138
9.03221,0.90681317
9.055629,0.90728264
9.07917,0.90770493
9.102833,0.90801907
9.12662,0.9083515
9.150531,0.90875315
9.174568,0.90884233
9.198731,0.90869665
9.223022,0.90868963
9.247441,0.90882556
9.27199,0.9089964
9.296669,0.90911091
9.32148,0.90922897
9.346423,0.9095271
9.3715,0.90978796
9.396712,0.90988188
9.42206,0.91016269
9.447545,0.91063532
9.473167,0.91117962
9.498929,0.91170202
9.524832,0.91213563
9.550876,0.91246014
9.577062,0.91273741
9.603393,0.91311927
9.629868,0.91353863
9.65649,0.91392175
9.683259,0.91415881
9.710176,0.91443485
9.737244,0.91496423
9.764463,0.91547457
9.791834,0.9158516
9.819359,0.91625219
9.847039,0.91672732
9.874875,0.91716048
9.902869,0.91751524
9.931022,0.91794405
9.959336,0.91847776
9.987811,0.91901613
10.016449,0.91950178
10.045252,0.92003512
10.074221,0.92071448
10.103357,0.92131756
10.132662,0.92184113
10.162137,0.92249124
10.191784,0.92317354
10.221604,0.92372732
10.2516,0.92419041
10.281771,0.92469433
10.312121,0.92506451
10.34265,0.92535026
10.37336,0.92584274
10.404253,0.92635039
10.435331,0.92664464
10.466594,0.92688178
10.498045,0.92712192
10.529686,0.92735536
10.561517,0.92772546
10.593542,0.92807505
10.625761,0.92836637
10.658176,0.92879804
10.69079,0.92929701
10.723604,0.92964663
10.756619,0.92989526
10.789839,0.93022707
10.823264,0.93052095
10.856896,0.93068851
10.890738,0.93087219
10.924791,0.93114233
10.959058,0.93138825
10.993541,0.9314543
11.02824,0.93153094
11.06316,0.93176162
11.098301,0.93200483
11.133665,0.93210864
11.169256,0.93209156
11.205075,0.93217526
11.241124,0.93239627
11.277405,0.93278176
11.313921,0.93307655
11.350675,0.9331576
11.387667,0.93337432
11.424901,0.9337561
11.46238,0.93419536
11.500105,0.93462521
11.538079,0.93488633
11.576304,0.93514206
11.614783,0.9356979
11.653518,0.93640283
11.692513,0.93714722
11.731769,0.9379917
11.77129,0.93874761
11.811077,0.93925188
11.851134,0.93981654
11.891464,0.94042888
11.932068,0.94084022
11.972951,0.94120029
12.014114,0.94138042
12.055562,0.94149915
12.097296,0.94165423
12.13932,0.9415878
12.181636,0.94150376
12.224249,0.94168575
12.26716,0.94205865
12.310373,0.94226814
12.353892,0.94238887
12.397719,0.94300261
12.441859,0.94380642
12.486313,0.94402254
12.531086,0.94379904
12.57618,0.94375353
12.621601,0.94399517
12.66735,0.944366
12.713432,0.94482572
12.75985,0.94525517
12.806608,0.94569284
12.85371,0.9462468
12.901159,0.94686902
12.94896,0.94740717
12.997116,0.94776493
13.045631,0.94814353
13.09451,0.94844808
13.143756,0.94855638
13.193373,0.94871459
13.243366,0.94890642
13.29374,0.94896206
13.344497,0.9490325
13.395644,0.94922605
13.447183,0.94929953
13.499121,0.94935237
13.551461,0.94939137
13.604208,0.94950152
13.657367,0.9500887
13.710943,0.95055477
13.764941,0.95062863
13.819365,0.95122133
13.874221,0.95189221
13.929515,0.95193961
13.98525,0.95215303
14.041433,0.95272917
14.098068,0.95312454
14.155163,0.95346887
14.212721,0.95383231
14.270749,0.954135
14.329252,0.95469061
14.388237,0.95493222
14.447709,0.95471231
14.507674,0.95441179
14.568139,0.95391718
14.629109,0.95367962
14.690592,0.95298059
14.752594,0.9512083
14.815121,0.94937082
14.878179,0.95105154
14.941777,0.95321699
15.00592,0.94691002
15.070616,0.94048567
15.135871,0.93898169
15.201695,0.93575368
15.268092,0.93002525
15.335072,0.92292641
15.402642,0.91322792
15.47081,0.90192031
15.539583,0.88963002
15.60897,0.87417927
15.678979,0.85213416
15.749619,0.82229167
15.820897,0.79271445
15.892824,0.76066912
15.965407,0.72042284
