Database of Origin,University of Winnipeg Spectrophotometer Facility
Sample Description,16. Meteorites. 16.1 Iron meteorites and components 16.1.2. UND samples.  (a) PSF D&P spectra
Other Information,only good to 4.3 um illum. spot larger than viewed spot (8mm)
Date Added,2018-07-23 23:32:11.577808

Data ID,FTIR_MET_4_3        
Sample ID,Tucson
Mineral Name,Tucson
Grain Size,Slab
Viewing Geometry,i=30/ e=0
Resolution,6 cm-1
Composition,Cloudy Spot Sanded 220 Grit Paper
Material Class,Iron Meteorite

Wavelength
2000.56,0.41672607
2001.142,0.41646618
2001.725,0.41630745
2002.307,0.41625826
2002.891,0.41628653
2003.474,0.41636067
2004.058,0.41642291
2004.643,0.4163899
2005.227,0.41623859
2005.812,0.41603708
2006.397,0.41585041
2006.983,0.41566757
2007.569,0.41545525
2008.155,0.41523082
2008.742,0.41503781
2009.329,0.41490414
2009.916,0.4148538
2010.504,0.41489767
2011.092,0.41498058
2011.68,0.41499273
2012.269,0.41488143
2012.858,0.41471604
2013.447,0.41460219
2014.037,0.41457547
2014.627,0.41460192
2015.217,0.41462888
2015.808,0.41460375
2016.399,0.41450266
2016.99,0.41436819
2017.582,0.41426411
2018.174,0.41417628
2018.766,0.41402295
2019.359,0.41378609
2019.952,0.4135564
2020.546,0.41341546
2021.139,0.41334067
2021.733,0.41327005
2022.328,0.41319427
2022.923,0.41313835
2023.518,0.41311218
2024.113,0.41312289
2024.709,0.41318248
2025.305,0.41325782
2025.902,0.41326102
2026.499,0.41314216
2027.096,0.41294922
2027.693,0.41276775
2028.291,0.41265099
2028.89,0.41262124
2029.488,0.41267277
2030.087,0.41273155
2030.686,0.41268719
2031.286,0.41251963
2031.886,0.41234545
2032.486,0.41228621
2033.087,0.41233349
2033.688,0.41238247
2034.289,0.41235412
2034.891,0.41224314
2035.493,0.4120929
2036.096,0.41196799
2036.698,0.41191534
2037.302,0.41191695
2037.905,0.41191368
2038.509,0.41189193
2039.113,0.41189704
2039.718,0.41194163
2040.322,0.41196916
2040.928,0.41193953
2041.533,0.41189387
2042.139,0.41189185
2042.746,0.41193103
2043.352,0.41196155
2043.959,0.41193575
2044.567,0.41181966
2045.174,0.41161219
2045.782,0.41138521
2046.391,0.41125105
2047.0,0.41124595
2047.609,0.41128737
2048.218,0.41128023
2048.828,0.411219
2049.438,0.41115724
2050.049,0.41113048
2050.66,0.41114639
2051.271,0.41120672
2051.883,0.4112854
2052.495,0.41132485
2053.107,0.4112914
2053.72,0.41120685
2054.333,0.41110229
2054.947,0.41098407
2055.56,0.41086466
2056.175,0.41077419
2056.789,0.41070975
2057.404,0.41062586
2058.019,0.41050988
2058.635,0.41041726
2059.251,0.41040239
2059.867,0.41044967
2060.484,0.41051213
2061.101,0.41056502
2061.718,0.41059108
2062.336,0.41055492
2062.954,0.4104343
2063.573,0.41025089
2064.192,0.41004802
2064.811,0.4098684
2065.431,0.40976101
2066.051,0.40975585
2066.671,0.40980659
2067.292,0.4098085
2067.913,0.40971468
2068.534,0.40958883
2069.156,0.40951667
2069.778,0.40950668
2070.401,0.40951277
2071.024,0.40949702
2071.647,0.40943655
2072.271,0.40930765
2072.895,0.40911248
2073.519,0.40889702
2074.144,0.40871753
2074.769,0.40861071
2075.395,0.40860186
2076.02,0.40869934
2076.647,0.408856
2077.273,0.40898352
2077.9,0.40903431
2078.528,0.4090357
2079.155,0.40902773
2079.784,0.40901696
2080.412,0.4090081
2081.041,0.40902195
2081.67,0.40904957
2082.3,0.40903353
2082.93,0.40893841
2083.56,0.40880894
2084.191,0.40871695
2084.822,0.40868417
2085.454,0.40868502
2086.085,0.40868423
2086.718,0.40864706
2087.35,0.40855527
2087.983,0.40844667
2088.617,0.40839619
2089.251,0.40842578
2089.885,0.408468
2090.519,0.40845431
2091.154,0.40839734
2091.789,0.40834782
2092.425,0.40831728
2093.061,0.40829177
2093.697,0.40829099
2094.334,0.40835372
2094.971,0.4084665
2095.609,0.40854781
2096.247,0.4085072
2096.885,0.40831354
2097.524,0.40803142
2098.163,0.40779937
2098.803,0.40774166
2099.443,0.40786576
2100.083,0.40805008
2100.723,0.40814605
2101.364,0.40807935
2102.006,0.40786965
2102.648,0.40759668
2103.29,0.4073655
2103.932,0.4072384
2104.575,0.4071745
2105.219,0.40706011
2105.862,0.40684105
2106.506,0.40658409
2107.151,0.40639901
2107.796,0.4063317
2108.441,0.4063616
2109.087,0.40645091
2109.733,0.40655271
2110.379,0.40659637
2111.026,0.40652494
2111.673,0.40635293
2112.321,0.40616376
2112.969,0.40604705
2113.617,0.40603398
2114.266,0.40607719
2114.915,0.40608601
2115.565,0.40601219
2116.215,0.40591412
2116.865,0.40589947
2117.516,0.40599274
2118.167,0.40608473
2118.819,0.40603719
2119.471,0.40582187
2120.123,0.4055475
2120.776,0.40537012
2121.429,0.40538224
2122.082,0.40554913
2122.736,0.40572728
2123.391,0.40578095
2124.045,0.40570215
2124.7,0.40559727
2125.356,0.40555866
2126.012,0.40558692
2126.668,0.40564066
2127.325,0.40569461
2127.982,0.4057211
2128.64,0.40567123
2129.297,0.40553496
2129.956,0.40538747
2130.614,0.4053202
2131.274,0.40533578
2131.933,0.40534781
2132.593,0.40527972
2133.253,0.40513448
2133.914,0.40497301
2134.575,0.40485807
2135.237,0.40481299
2135.899,0.40480686
2136.561,0.40477509
2137.224,0.4046727
2137.887,0.40450738
2138.55,0.40432401
2139.214,0.40418553
2139.879,0.40416092
2140.544,0.4042859
2141.209,0.4044982
2141.874,0.40464228
2142.54,0.40459218
2143.207,0.40437085
2143.873,0.40412216
2144.541,0.40396145
2145.208,0.40388149
2145.876,0.40380987
2146.545,0.40372578
2147.214,0.40369358
2147.883,0.40377964
2148.553,0.40394321
2149.223,0.4040383
2149.893,0.40394972
2150.564,0.40371632
2151.235,0.40350084
2151.907,0.40343055
2152.579,0.40349073
2153.252,0.40357143
2153.925,0.40358534
2154.598,0.4035239
2155.272,0.40342875
2155.946,0.40334856
2156.621,0.4033084
2157.296,0.4032927
2157.972,0.40325732
2158.647,0.40317253
2159.324,0.40305039
2160.001,0.40293376
2160.678,0.40287052
2161.355,0.4028971
2162.033,0.40301381
2162.712,0.403159
2163.39,0.40324473
2164.07,0.40324607
2164.749,0.40323203
2165.429,0.40328871
2166.11,0.40342648
2166.791,0.40358407
2167.472,0.40370577
2168.154,0.40377943
2168.836,0.40380598
2169.519,0.40377388
2170.202,0.40367632
2170.885,0.40353901
2171.569,0.40341752
2172.254,0.40336358
2172.938,0.40338293
2173.624,0.40341951
2174.309,0.40339358
2174.995,0.40326769
2175.682,0.40308061
2176.368,0.402903
2177.056,0.40277168
2177.743,0.40268748
2178.432,0.40266023
2179.12,0.40271744
2179.809,0.40285989
2180.499,0.40302831
2181.189,0.4031461
2181.879,0.40317652
2182.57,0.40313587
2183.261,0.40305701
2183.952,0.40296099
2184.644,0.40286176
2185.337,0.40277767
2186.03,0.40272334
2186.723,0.40268973
2187.417,0.4026494
2188.111,0.40259208
2188.806,0.40255989
2189.501,0.4026237
2190.196,0.40281185
2190.892,0.40306501
2191.589,0.40326837
2192.285,0.40333257
2192.983,0.40325072
2193.68,0.40309482
2194.379,0.40296271
2195.077,0.40291272
2195.776,0.40293017
2196.476,0.40294953
2197.175,0.40292571
2197.876,0.40287791
2198.577,0.40285738
2199.278,0.40287756
2199.979,0.40290608
2200.682,0.40291408
2201.384,0.40290591
2202.087,0.40289494
2202.79,0.40287991
2203.494,0.40286602
2204.199,0.40287784
2204.903,0.40293326
2205.609,0.40300927
2206.314,0.40306348
2207.02,0.40307266
2207.727,0.40303764
2208.434,0.40296316
2209.141,0.40285813
2209.849,0.40275681
2210.557,0.40271092
2211.266,0.40274357
2211.975,0.40282296
2212.685,0.40288797
2213.395,0.40289931
2214.106,0.40286725
2214.817,0.4028314
2215.528,0.40281465
2216.24,0.40279872
2216.952,0.40274246
2217.665,0.40262348
2218.379,0.40244979
2219.092,0.40224931
2219.806,0.40205876
2220.521,0.40191665
2221.236,0.4018344
2221.952,0.40176523
2222.668,0.40164296
2223.384,0.40146971
2224.101,0.40133701
2224.818,0.40132431
2225.536,0.40138662
2226.254,0.40139111
2226.973,0.40126327
2227.692,0.40106293
2228.412,0.40090642
2229.132,0.40084024
2229.853,0.40080546
2230.574,0.40071353
2231.295,0.40053859
2232.017,0.40033743
2232.74,0.40018451
2233.462,0.40009671
2234.186,0.40003315
2234.91,0.39996543
2235.634,0.3999146
2236.359,0.39991035
2237.084,0.39994317
2237.809,0.39998425
2238.536,0.40002588
2239.262,0.4000693
2239.989,0.40009322
2240.717,0.40007237
2241.445,0.40002134
2242.173,0.39998146
2242.902,0.39996586
2243.631,0.39995057
2244.361,0.39992052
2245.092,0.39988669
2245.822,0.39985403
2246.554,0.39980543
2247.285,0.39973214
2248.017,0.39965527
2248.75,0.39959804
2249.483,0.39954893
2250.217,0.3994683
2250.951,0.39932474
2251.686,0.3991309
2252.421,0.39894677
2253.156,0.39883755
2253.892,0.39881403
2254.628,0.39882241
2255.365,0.39880601
2256.103,0.39875639
2256.841,0.39869581
2257.579,0.39863781
2258.318,0.39858946
2259.057,0.39856643
2259.797,0.39856518
2260.537,0.39854089
2261.278,0.39845138
2262.019,0.39831442
2262.761,0.3981755
2263.503,0.39802973
2264.246,0.39783137
2264.989,0.39759235
2265.732,0.39741782
2266.477,0.39741061
2267.221,0.39756576
2267.966,0.39776684
2268.712,0.39787579
2269.458,0.39783064
2270.204,0.39768561
2270.951,0.3975601
2271.699,0.39752788
2272.447,0.39754798
2273.195,0.39751972
2273.944,0.39739442
2274.694,0.39721806
2275.444,0.39707528
2276.194,0.39701732
2276.945,0.39703978
2277.696,0.39709504
2278.448,0.39712959
2279.201,0.39712777
2279.954,0.39711789
2280.707,0.39711486
2281.461,0.3970795
2282.215,0.39696963
2282.97,0.39681035
2283.725,0.39667417
2284.481,0.39660077
2285.237,0.39657408
2285.994,0.3965687
2286.752,0.39656949
2287.509,0.39654693
2288.268,0.39647165
2289.026,0.39635743
2289.786,0.39626679
2290.545,0.39625259
2291.306,0.3963183
2292.067,0.39642153
2292.828,0.39648997
2293.59,0.39645399
2294.352,0.39630596
2295.115,0.39612544
2295.878,0.39601221
2296.642,0.3959906
2297.406,0.39601554
2298.171,0.39604516
2298.936,0.39606992
2299.702,0.39607761
2300.468,0.39604554
2301.235,0.3959729
2302.002,0.39588228
2302.77,0.39578579
2303.539,0.39568724
2304.307,0.39561184
2305.077,0.39558842
2305.847,0.39559783
2306.617,0.39557347
2307.388,0.39546854
2308.159,0.3953058
2308.931,0.39516048
2309.703,0.39511085
2310.476,0.39518288
2311.25,0.39530928
2312.024,0.39536585
2312.798,0.3952882
2313.573,0.39514111
2314.348,0.39503263
2315.124,0.39498408
2315.901,0.3949278
2316.678,0.39481815
2317.455,0.39468234
2318.234,0.3945723
2319.012,0.39452533
2319.791,0.394565
2320.571,0.39467879
2321.351,0.39478258
2322.131,0.39477055
2322.913,0.39461725
2323.694,0.39440779
2324.476,0.39426002
2325.259,0.39423984
2326.042,0.3943312
2326.826,0.3944466
2327.61,0.39448039
2328.395,0.3944015
2329.18,0.39428979
2329.966,0.39424403
2330.753,0.39426547
2331.54,0.39428282
2332.327,0.39426846
2333.115,0.39426909
2333.903,0.394319
2334.692,0.39439383
2335.482,0.39445355
2336.272,0.39447989
2337.062,0.39446388
2337.854,0.39440225
2338.645,0.39431651
2339.437,0.39423903
2340.23,0.3941785
2341.023,0.39412173
2341.817,0.39406764
2342.611,0.39401999
2343.406,0.39397128
2344.201,0.39393098
2344.997,0.39394657
2345.794,0.39404295
2346.591,0.39415646
2347.388,0.39418921
2348.186,0.39411928
2348.985,0.39400687
2349.784,0.39390141
2350.583,0.39381171
2351.384,0.39375013
2352.184,0.39373863
2352.986,0.39376102
2353.787,0.39377059
2354.59,0.39375343
2355.393,0.39373243
2356.196,0.39370906
2357.0,0.39364612
2357.804,0.39351601
2358.609,0.39333032
2359.415,0.39312707
2360.221,0.39296872
2361.028,0.39292426
2361.835,0.39300252
2362.643,0.39311352
2363.451,0.393145
2364.26,0.39307367
2365.069,0.39295902
2365.879,0.39285554
2366.69,0.3927827
2367.501,0.39276694
2368.312,0.39283402
2369.125,0.39295829
2369.937,0.39307329
2370.751,0.39313472
2371.564,0.39313221
2372.379,0.39305894
2373.194,0.39293008
2374.009,0.39281003
2374.825,0.39276054
2375.642,0.39275887
2376.459,0.39273008
2377.276,0.39265326
2378.095,0.39257658
2378.913,0.39254575
2379.733,0.39256636
2380.553,0.39263015
2381.373,0.39271071
2382.194,0.39274424
2383.016,0.39268466
2383.838,0.39257858
2384.661,0.39252189
2385.484,0.39253792
2386.308,0.39255816
2387.132,0.39251325
2387.957,0.39239493
2388.783,0.39223987
2389.609,0.39211166
2390.435,0.39209027
2391.263,0.39221126
2392.09,0.39240459
2392.919,0.39254368
2393.748,0.39256297
2394.577,0.39249558
2395.407,0.39241524
2396.238,0.39237847
2397.069,0.39239891
2397.901,0.39241893
2398.733,0.39233845
2399.566,0.39213261
2400.399,0.39192028
2401.233,0.39184734
2402.068,0.39191816
2402.903,0.39200671
2403.739,0.39202035
2404.575,0.39198466
2405.412,0.39197304
2406.25,0.39201889
2407.088,0.39209358
2407.926,0.39212189
2408.766,0.39202882
2409.606,0.39182862
2410.446,0.39165242
2411.287,0.39162838
2412.128,0.39174293
2412.971,0.39187139
2413.813,0.3919232
2414.657,0.39189159
2415.5,0.3917938
2416.345,0.39164636
2417.19,0.39149995
2418.036,0.39141955
2418.882,0.391417
2419.729,0.39145416
2420.576,0.39150577
2421.424,0.39156662
2422.272,0.39160634
2423.122,0.39158439
2423.971,0.39150133
2424.822,0.39139591
2425.673,0.39129956
2426.524,0.39123998
2427.376,0.39124638
2428.229,0.39129834
2429.082,0.39130242
2429.936,0.39120064
2430.791,0.39107555
2431.646,0.39106777
2432.501,0.39120091
2433.358,0.39136309
2434.214,0.39145055
2435.072,0.39145734
2435.93,0.39142894
2436.789,0.3914041
2437.648,0.39140778
2438.508,0.39143637
2439.368,0.3914469
2440.229,0.39141016
2441.091,0.39136687
2441.953,0.39138628
2442.816,0.3914797
2443.679,0.39160305
2444.543,0.39170942
2445.408,0.39175354
2446.273,0.39168322
2447.139,0.39150506
2448.006,0.39133032
2448.873,0.39128027
2449.74,0.39135391
2450.609,0.39145714
2451.478,0.39153424
2452.347,0.39160496
2453.217,0.39168474
2454.088,0.39174834
2454.959,0.39176297
2455.831,0.39170176
2456.704,0.39153832
2457.577,0.39129291
2458.451,0.39106438
2459.325,0.39094734
2460.2,0.39093058
2461.076,0.39093716
2461.952,0.39094868
2462.829,0.39102393
2463.707,0.39120218
2464.585,0.3914413
2465.464,0.39164328
2466.343,0.3917019
2467.223,0.39157487
2468.104,0.39137174
2468.985,0.39131612
2469.867,0.39152768
2470.749,0.39186839
2471.632,0.39207151
2472.516,0.39200884
2473.4,0.39176606
2474.285,0.39149698
2475.171,0.39130728
2476.057,0.39125369
2476.944,0.39134989
2477.832,0.39154125
2478.72,0.39173534
2479.608,0.39187018
2480.498,0.39192646
2481.388,0.39189913
2482.278,0.39182177
2483.17,0.39178308
2484.062,0.39184595
2484.954,0.39196292
2485.847,0.39203883
2486.741,0.39204791
2487.636,0.39203138
2488.531,0.39201702
2489.427,0.3920138
2490.323,0.39205482
2491.22,0.39216294
2492.118,0.39228882
2493.016,0.39235812
2493.915,0.39236601
2494.814,0.39235979
2495.715,0.3923501
2496.615,0.39230695
2497.517,0.39222532
2498.419,0.39213523
2499.322,0.39205672
2500.225,0.3920099
2501.129,0.39204042
2502.034,0.39216967
2502.939,0.39233551
2503.845,0.39244485
2504.752,0.39246321
2505.659,0.39240359
2506.567,0.39227404
2507.476,0.39210816
2508.385,0.39199747
2509.295,0.39200465
2510.206,0.39206987
2511.117,0.39208834
2512.029,0.39206111
2512.942,0.39209224
2513.855,0.3922478
2514.769,0.39248054
2515.683,0.39267939
2516.598,0.39274085
2517.514,0.39263104
2518.431,0.39245338
2519.348,0.39241941
2520.266,0.39266133
2521.184,0.39308555
2522.103,0.39346861
2523.023,0.39367592
2523.944,0.39372421
2524.865,0.39366621
2525.787,0.39353371
2526.709,0.39340378
2527.632,0.39342926
2528.556,0.39373435
2529.48,0.39429104
2530.406,0.39489578
2531.331,0.39529122
2532.258,0.39538292
2533.185,0.39534172
2534.113,0.39539735
2535.041,0.39551433
2535.971,0.39538276
2536.9,0.39482759
2537.831,0.39414423
2538.762,0.39388558
2539.694,0.39437364
2540.627,0.39544308
2541.56,0.3965148
2542.494,0.39695112
2543.428,0.39656669
2544.364,0.39580812
2545.3,0.39530527
2546.236,0.39531108
2547.174,0.39562334
2548.112,0.39600105
2549.05,0.39649209
2549.99,0.39718763
2550.93,0.3978014
2551.87,0.39777399
2552.812,0.39687675
2553.754,0.39548695
2554.697,0.39418668
2555.64,0.39340356
2556.585,0.39347215
2557.529,0.39472223
2558.475,0.39732518
2559.421,0.40105505
2560.368,0.40512108
2561.316,0.40818465
2562.264,0.40884221
2563.213,0.40665938
2564.163,0.40281697
2565.113,0.39931093
2566.065,0.3975474
2567.016,0.39774299
2567.969,0.39908932
2568.922,0.40036127
2569.876,0.40090793
2570.831,0.40112808
2571.786,0.40170904
2572.742,0.402698
2573.699,0.40348684
2574.656,0.40351076
2575.615,0.40271603
2576.573,0.40136659
2577.533,0.39985571
2578.493,0.39883918
2579.454,0.39911816
2580.416,0.40108142
2581.378,0.4041749
2582.342,0.40694212
2583.305,0.40803819
2584.27,0.40750633
2585.235,0.40652107
2586.201,0.40590459
2587.168,0.40534239
2588.135,0.40393607
2589.103,0.40163574
2590.072,0.399989
2591.042,0.40120093
2592.012,0.4068478
2592.983,0.41665816
2593.955,0.42605251
2594.927,0.42672991
2595.9,0.41767232
2596.874,0.40703632
2597.849,0.40026869
2598.824,0.39793411
2599.8,0.39881258
2600.777,0.40146897
2601.755,0.40488925
2602.733,0.4086023
2603.712,0.41207043
2604.692,0.41413283
2605.672,0.4137067
2606.653,0.41109651
2607.635,0.40775235
2608.618,0.40483659
2609.601,0.40262954
2610.585,0.40097683
2611.57,0.39993751
2612.556,0.40001613
2613.542,0.40179806
2614.529,0.40529629
2615.517,0.4094577
2616.505,0.41251669
2617.495,0.41345795
2618.485,0.41266439
2619.475,0.41061186
2620.467,0.40721277
2621.459,0.40301104
2622.452,0.39968944
2623.446,0.39872844
2624.44,0.40028329
2625.435,0.40323211
2626.431,0.40609773
2627.428,0.4083202
2628.426,0.41030006
2629.424,0.41201484
2630.423,0.41240798
2631.423,0.41062996
2632.423,0.40733087
2633.424,0.40391697
2634.426,0.40118295
2635.429,0.39916532
2636.432,0.39775222
2637.437,0.39703977
2638.442,0.39713128
2639.447,0.39780669
2640.454,0.39858174
2641.461,0.39918434
2642.469,0.3998279
2643.478,0.40080686
2644.488,0.40188309
2645.498,0.40227909
2646.509,0.40147959
2647.521,0.39998367
2648.534,0.39896694
2649.547,0.39933103
2650.561,0.40115711
2651.576,0.40363593
2652.592,0.40547259
2653.609,0.40579802
2654.626,0.40482287
2655.644,0.40353564
2656.663,0.40295022
2657.682,0.40355233
2658.703,0.40500587
2659.724,0.40632389
2660.746,0.40696931
2661.768,0.40794892
2662.792,0.41111484
2663.816,0.41728121
2664.841,0.42469281
2665.867,0.42957759
2666.894,0.4304858
2667.921,0.43016667
2668.949,0.43078265
2669.978,0.43063353
2671.008,0.42675664
2672.038,0.4201919
2673.07,0.41529389
2674.102,0.41494651
2675.135,0.4191945
2676.168,0.42536289
2677.203,0.42860016
2678.238,0.42589204
2679.274,0.41957964
2680.311,0.41388783
2681.349,0.41096923
2682.387,0.41086033
2683.426,0.41249987
2684.467,0.4144166
2685.507,0.41542058
2686.549,0.41517869
2687.591,0.41414862
2688.635,0.41315337
2689.679,0.41319717
2690.724,0.41538944
2691.769,0.42052121
2692.816,0.42811848
2693.863,0.43541039
2694.911,0.43847272
2695.96,0.43655279
2697.01,0.43317546
2698.06,0.4319717
2699.112,0.43417357
2700.164,0.43885514
2701.217,0.44376287
2702.27,0.44685359
2703.325,0.44803834
2704.38,0.44904989
2705.437,0.45189091
2706.494,0.4580106
2707.552,0.46827273
2708.61,0.48227169
2709.67,0.49632377
2710.73,0.50330647
2711.791,0.49946202
2712.853,0.48958996
2713.916,0.48069659
2714.98,0.47636787
2716.044,0.47781155
2717.109,0.4857615
2718.175,0.50009529
2719.242,0.51744311
2720.31,0.53021945
2721.379,0.5325955
2722.448,0.52702663
2723.518,0.5187996
2724.589,0.50884363
2725.661,0.49570067
2726.734,0.48066659
2727.808,0.46740033
2728.882,0.4581857
2729.958,0.45305985
2731.034,0.45107705
2732.111,0.4511726
2733.188,0.45210225
2734.267,0.45240617
2735.347,0.45160957
2736.427,0.45149855
2737.508,0.45493292
2738.59,0.46276518
2739.673,0.4705856
2740.757,0.46953623
2741.841,0.45722763
2742.927,0.44175533
2744.013,0.43001445
2745.1,0.42316811
2746.188,0.41980456
2747.277,0.41830605
2748.367,0.41752853
2749.457,0.41689528
2750.549,0.4166091
2751.641,0.41773669
2752.734,0.42152731
2753.828,0.42794387
2754.923,0.43392321
2756.019,0.43409783
2757.115,0.42723337
2758.213,0.41871697
2759.311,0.41362018
2760.41,0.41322478
2761.51,0.41613113
2762.611,0.41937935
2763.713,0.42029054
2764.816,0.41875512
2765.919,0.41664647
2767.024,0.4154525
2768.129,0.41542858
2769.235,0.41592909
2770.342,0.41582456
2771.45,0.41417074
2772.559,0.41110535
2773.669,0.40784868
2774.779,0.40560152
2775.891,0.4047301
2777.003,0.40489724
2778.116,0.40558959
2779.23,0.40638713
2780.345,0.40688227
2781.461,0.40674787
2782.578,0.40618425
2783.696,0.40607021
2784.814,0.40727685
2785.934,0.40970755
2787.054,0.411853
2788.175,0.41170835
2789.297,0.40896113
2790.42,0.40538908
2791.544,0.40274688
2792.669,0.40149299
2793.795,0.40115803
2794.922,0.40111247
2796.049,0.40099798
2797.178,0.40077078
2798.307,0.40072501
2799.437,0.40152566
2800.568,0.40382671
2801.7,0.40744915
2802.833,0.41076092
2803.967,0.41149887
2805.102,0.4091801
2806.238,0.40568041
2807.374,0.40289094
2808.512,0.40129557
2809.65,0.40047783
2810.789,0.400002
2811.93,0.39978052
2813.071,0.39986653
2814.213,0.40014805
2815.356,0.40039436
2816.5,0.40057743
2817.645,0.40094681
2818.791,0.40161789
2819.937,0.40217757
2821.085,0.40194845
2822.233,0.40078538
2823.383,0.39932598
2824.533,0.39831042
2825.685,0.39794775
2826.837,0.39795941
2827.99,0.39798481
2829.144,0.39788686
2830.299,0.39777941
2831.455,0.39787465
2832.612,0.39828386
2833.77,0.39888477
2834.929,0.39937847
2836.089,0.39951997
2837.25,0.39926639
2838.411,0.39870133
2839.574,0.39793635
2840.737,0.39712511
2841.902,0.39644859
2843.067,0.39600551
2844.234,0.39578586
2845.401,0.39576995
2846.569,0.39595584
2847.739,0.39624042
2848.909,0.39640763
2850.08,0.39635278
2851.252,0.39622958
2852.425,0.39622727
2853.599,0.39628612
2854.774,0.39615306
2855.95,0.39571115
2857.127,0.39514846
2858.305,0.39476787
2859.484,0.39469225
2860.664,0.39476444
2861.844,0.39468973
2863.026,0.3943088
2864.209,0.39375564
2865.392,0.39331098
2866.577,0.39312552
2867.763,0.39314198
2868.949,0.39325038
2870.137,0.39339031
2871.325,0.39347576
2872.515,0.39337007
2873.705,0.39304731
2874.897,0.39268632
2876.089,0.39249927
2877.283,0.39251919
2878.477,0.39261089
2879.673,0.39261903
2880.869,0.39245996
2882.066,0.39214361
2883.265,0.39178057
2884.464,0.39153551
2885.664,0.39150511
2886.866,0.39164363
2888.068,0.39182037
2889.271,0.3919051
2890.476,0.39179909
2891.681,0.39146907
2892.887,0.39099925
2894.095,0.39055835
2895.303,0.3902821
2896.512,0.39022546
2897.723,0.39040804
2898.934,0.39079812
2900.146,0.39121602
2901.36,0.39137535
2902.574,0.39113133
2903.789,0.39063258
2905.006,0.39015093
2906.223,0.38982349
2907.441,0.38961633
2908.661,0.38944681
2909.881,0.38926232
2911.103,0.38906045
2912.325,0.38889998
2913.549,0.38886063
2914.773,0.38893496
2915.999,0.38899477
2917.225,0.38891425
2918.453,0.38869994
2919.681,0.38846524
2920.911,0.38830938
2922.142,0.38823953
2923.373,0.38817077
2924.606,0.38797853
2925.84,0.38759765
2927.075,0.3870953
2928.31,0.38661183
2929.547,0.38622623
2930.785,0.38593026
2932.024,0.38571757
2933.264,0.38562515
2934.505,0.38565994
2935.747,0.38575241
2936.99,0.38581638
2938.234,0.38580428
2939.479,0.38568183
2940.726,0.38543265
2941.973,0.38513394
2943.221,0.38496515
2944.471,0.38506565
2945.721,0.38538156
2946.973,0.38567328
2948.225,0.38568094
2949.479,0.38531388
2950.733,0.38474353
2951.989,0.38430466
2953.246,0.38422061
2954.504,0.38437442
2955.763,0.38441088
2957.023,0.38408444
2958.284,0.38347395
2959.546,0.3828451
2960.809,0.38238902
2962.073,0.38212871
2963.339,0.38199728
2964.605,0.38192477
2965.873,0.38187174
2967.141,0.38182934
2968.411,0.38179945
2969.681,0.38177751
2970.953,0.38177683
2972.226,0.3818511
2973.5,0.38202688
2974.775,0.38220489
2976.051,0.38220226
2977.328,0.38192536
2978.607,0.38145358
2979.886,0.38094618
2981.167,0.38051884
2982.448,0.38022704
2983.731,0.38008511
2985.015,0.38005071
2986.3,0.38004092
2987.586,0.38001517
2988.873,0.38001059
2990.161,0.38005746
2991.45,0.3800984
2992.74,0.38003975
2994.032,0.37985693
2995.324,0.37962036
2996.618,0.37943563
2997.913,0.37937493
2999.209,0.37943009
3000.506,0.37950168
3001.804,0.37946805
3003.103,0.37928988
3004.404,0.37903218
3005.705,0.37878095
3007.008,0.37856344
3008.312,0.37837118
3009.616,0.37821938
3010.922,0.37814312
3012.23,0.37815059
3013.538,0.37820058
3014.847,0.37822543
3016.158,0.3781754
3017.469,0.37805696
3018.782,0.377929
3020.096,0.37783643
3021.411,0.37775851
3022.727,0.37764736
3024.044,0.37751304
3025.363,0.37743305
3026.683,0.37748203
3028.003,0.37769567
3029.325,0.37807328
3030.648,0.37853884
3031.972,0.3788969
3033.298,0.37891928
3034.624,0.37854451
3035.952,0.37796538
3037.281,0.37748072
3038.611,0.37726944
3039.942,0.37730758
3041.274,0.37745414
3042.607,0.3775712
3043.942,0.3775903
3045.278,0.37751376
3046.615,0.37737115
3047.953,0.37717504
3049.292,0.37693389
3050.632,0.37670008
3051.974,0.37656112
3053.317,0.37655891
3054.661,0.3766354
3056.006,0.37668201
3057.352,0.37663208
3058.7,0.37651016
3060.048,0.37641639
3061.398,0.3764661
3062.749,0.37669163
3064.101,0.37697665
3065.455,0.37712231
3066.809,0.37701679
3068.165,0.37672741
3069.522,0.37642335
3070.88,0.37622331
3072.239,0.37612702
3073.6,0.37606552
3074.962,0.37598914
3076.325,0.37591587
3077.689,0.37590915
3079.054,0.37599563
3080.421,0.37610883
3081.788,0.37613996
3083.157,0.37605597
3084.527,0.37593889
3085.899,0.37589295
3087.271,0.37593608
3088.645,0.37600003
3090.02,0.37600156
3091.396,0.37589896
3092.774,0.37571367
3094.153,0.37553347
3095.532,0.37547594
3096.914,0.37560023
3098.296,0.37583692
3099.679,0.37602066
3101.064,0.3760103
3102.45,0.37579144
3103.837,0.37547848
3105.226,0.37521448
3106.616,0.37505432
3108.007,0.37493912
3109.399,0.37478624
3110.792,0.37459015
3112.187,0.37441451
3113.583,0.37430185
3114.98,0.37422885
3116.378,0.37415415
3117.778,0.37406667
3119.179,0.37397869
3120.581,0.37390445
3121.985,0.37386492
3123.389,0.37388009
3124.795,0.37392946
3126.202,0.37394056
3127.611,0.3738441
3129.02,0.37363815
3130.431,0.3733783
3131.844,0.37312323
3133.257,0.37290832
3134.672,0.37274951
3136.088,0.37264325
3137.505,0.37256077
3138.924,0.3724632
3140.344,0.37233814
3141.765,0.3722195
3143.187,0.37216648
3144.611,0.37221048
3146.036,0.37230976
3147.462,0.37236628
3148.89,0.37230729
3150.319,0.37215496
3151.749,0.37199778
3153.18,0.37189417
3154.613,0.37182988
3156.047,0.37176972
3157.482,0.37171265
3158.919,0.37167648
3160.357,0.3716565
3161.796,0.37162945
3163.236,0.37159167
3164.678,0.37155937
3166.121,0.37153795
3167.566,0.37150798
3169.011,0.37144025
3170.458,0.37131456
3171.907,0.3711322
3173.356,0.37094039
3174.807,0.37084061
3176.26,0.37094103
3177.713,0.37125892
3179.168,0.37165827
3180.624,0.37190679
3182.082,0.37183089
3183.541,0.37144136
3185.001,0.3709213
3186.463,0.37049272
3187.926,0.37028831
3189.39,0.37032264
3190.856,0.37053027
3192.323,0.370787
3193.791,0.37093263
3195.26,0.37085062
3196.731,0.37057017
3198.204,0.37025899
3199.677,0.37008779
3201.152,0.37008719
3202.629,0.37014758
3204.106,0.37013582
3205.585,0.37000875
3207.066,0.36983892
3208.548,0.36976111
3210.031,0.36989027
3211.515,0.37025663
3213.001,0.37078693
3214.488,0.37133129
3215.977,0.37169916
3217.467,0.37171137
3218.958,0.37130016
3220.451,0.37060665
3221.945,0.36994521
3223.441,0.36958548
3224.938,0.36953886
3226.436,0.36957536
3227.936,0.36946596
3229.437,0.36918944
3230.939,0.36890142
3232.443,0.36874044
3233.948,0.36868992
3235.455,0.36862193
3236.963,0.36844305
3238.472,0.36819199
3239.983,0.36800455
3241.495,0.36799014
3243.008,0.36813751
3244.523,0.36833865
3246.04,0.36849322
3247.558,0.36858125
3249.077,0.36864583
3250.598,0.36873359
3252.12,0.36886329
3253.643,0.36903289
3255.168,0.36921143
3256.694,0.36931602
3258.222,0.36922625
3259.751,0.3688645
3261.282,0.36828645
3262.814,0.36768543
3264.347,0.36728739
3265.882,0.36720667
3267.418,0.36737812
3268.956,0.36760691
3270.495,0.36768643
3272.036,0.36751249
3273.578,0.36713628
3275.122,0.36672299
3276.667,0.36643449
3278.213,0.36632108
3279.761,0.36632277
3281.31,0.36636351
3282.861,0.36642485
3284.413,0.36651457
3285.967,0.36659501
3287.522,0.36659346
3289.079,0.36650226
3290.637,0.36643448
3292.196,0.36654189
3293.757,0.36685418
3295.32,0.36720555
3296.884,0.36734048
3298.449,0.3671202
3300.016,0.36665118
3301.585,0.36620716
3303.155,0.3660022
3304.726,0.3660203
3306.299,0.36606433
3307.873,0.36595969
3309.449,0.36570643
3311.026,0.36545115
3312.605,0.36533418
3314.185,0.3653711
3315.767,0.36546183
3317.351,0.36549302
3318.936,0.36543853
3320.522,0.36537778
3322.11,0.3654309
3323.699,0.36566733
3325.29,0.36605246
3326.882,0.36645284
3328.476,0.36668478
3330.072,0.36659977
3331.669,0.36617973
3333.267,0.36556728
3334.867,0.3649775
3336.469,0.36455935
3338.072,0.36433257
3339.676,0.36424328
3341.282,0.36424727
3342.89,0.36432521
3344.499,0.36445982
3346.11,0.36463023
3347.722,0.36482123
3349.336,0.3649969
3350.952,0.36507042
3352.569,0.36494093
3354.187,0.36458373
3355.807,0.36410696
3357.429,0.36370417
3359.052,0.3635392
3360.677,0.36364824
3362.303,0.36392914
3363.931,0.36421871
3365.56,0.36439627
3367.191,0.36443887
3368.824,0.36439339
3370.458,0.36430655
3372.093,0.36418372
3373.731,0.36400126
3375.37,0.36374472
3377.01,0.36343483
3378.652,0.36312496
3380.296,0.36287571
3381.941,0.36271959
3383.588,0.36264194
3385.236,0.36258938
3386.886,0.36250272
3388.538,0.36236349
3390.191,0.36222359
3391.846,0.36218009
3393.502,0.36229101
3395.16,0.36250204
3396.82,0.3626809
3398.481,0.36274778
3400.144,0.36276186
3401.809,0.36285309
3403.475,0.36306314
3405.143,0.36326817
3406.812,0.36327789
3408.483,0.36300554
3410.156,0.36254412
3411.83,0.36208113
3413.506,0.36174624
3415.183,0.36155382
3416.862,0.36147868
3418.543,0.36154228
3420.226,0.36177536
3421.91,0.36211019
3423.596,0.36236784
3425.283,0.36239683
3426.972,0.36220706
3428.663,0.36194882
3430.355,0.36177864
3432.049,0.36176862
3433.745,0.36193369
3435.442,0.36228672
3437.141,0.36283303
3438.842,0.36351009
3440.545,0.36414807
3442.249,0.36451801
3443.954,0.3644603
3445.662,0.36400143
3447.371,0.36335957
3449.082,0.36280769
3450.794,0.36250487
3452.509,0.36242921
3454.224,0.36245464
3455.942,0.36248227
3457.661,0.36251319
3459.382,0.36261737
3461.105,0.36283145
3462.829,0.36308748
3464.556,0.36324758
3466.283,0.36322431
3468.013,0.36305863
3469.744,0.36287626
3471.477,0.36277288
3473.212,0.36275515
3474.948,0.36277802
3476.686,0.36281019
3478.426,0.36284702
3480.168,0.36288292
3481.911,0.36290391
3483.656,0.36292894
3485.403,0.36304615
3487.152,0.36335952
3488.902,0.3638545
3490.654,0.36433164
3492.408,0.36453612
3494.164,0.36438157
3495.921,0.36403172
3497.68,0.36373805
3499.441,0.36362695
3501.204,0.36366026
3502.968,0.36376156
3504.734,0.36390253
3506.502,0.36406825
3508.272,0.36420991
3510.043,0.36427892
3511.817,0.36428579
3513.592,0.36429554
3515.368,0.3643698
3517.147,0.36453141
3518.927,0.36476629
3520.71,0.36502819
3522.494,0.36524034
3524.28,0.36533655
3526.067,0.36534493
3527.857,0.36542432
3529.648,0.36575871
3531.441,0.3663657
3533.236,0.36701211
3535.032,0.36737764
3536.831,0.36732859
3538.631,0.36702024
3540.433,0.36672482
3542.237,0.36658956
3544.043,0.36657782
3545.851,0.36659967
3547.66,0.36662482
3549.471,0.36667481
3551.284,0.36676105
3553.099,0.36687258
3554.916,0.36699975
3556.735,0.36714106
3558.555,0.36729012
3560.378,0.36743239
3562.202,0.36755897
3564.028,0.36768023
3565.856,0.36782776
3567.686,0.36802834
3569.518,0.36827208
3571.351,0.36850179
3573.187,0.36865112
3575.024,0.36869897
3576.863,0.36868978
3578.704,0.36871083
3580.547,0.36884454
3582.392,0.36911111
3584.239,0.36943677
3586.088,0.36969605
3587.938,0.36982528
3589.791,0.369896
3591.645,0.37005174
3593.501,0.37035115
3595.359,0.37068466
3597.22,0.37086119
3599.082,0.3707763
3600.946,0.37050162
3602.811,0.37022031
3604.679,0.3700756
3606.549,0.37007985
3608.421,0.37017144
3610.294,0.37033088
3612.17,0.37059975
3614.047,0.37097243
3615.926,0.37132391
3617.808,0.3715002
3619.691,0.37147525
3621.576,0.37137517
3623.463,0.37134523
3625.353,0.37142669
3627.244,0.37156486
3629.137,0.37169949
3631.032,0.37182197
3632.929,0.37196171
3634.828,0.37214522
3636.729,0.37236338
3638.632,0.37257874
3640.537,0.37276303
3642.444,0.37293666
3644.353,0.37315553
3646.263,0.3734554
3648.176,0.37380711
3650.091,0.37412637
3652.008,0.37432925
3653.927,0.3743983
3655.848,0.37440568
3657.771,0.37446165
3659.696,0.37462181
3661.623,0.3748442
3663.552,0.37504758
3665.483,0.37519693
3667.416,0.3753202
3669.351,0.37546511
3671.288,0.37567446
3673.227,0.3759846
3675.168,0.37640873
3677.111,0.37690043
3679.057,0.37736243
3681.004,0.37770393
3682.953,0.37789043
3684.905,0.37794436
3686.858,0.37793155
3688.814,0.37794266
3690.771,0.37805836
3692.731,0.37830461
3694.693,0.37864646
3696.656,0.37902052
3698.622,0.37936925
3700.59,0.37965514
3702.56,0.37987206
3704.532,0.38005072
3706.507,0.38023529
3708.483,0.3804452
3710.461,0.38066775
3712.442,0.38088765
3714.425,0.38110326
3716.409,0.3813175
3718.396,0.38153641
3720.385,0.38177706
3722.376,0.3820538
3724.37,0.38235197
3726.365,0.38263206
3728.362,0.38287197
3730.362,0.38308759
3732.364,0.38331802
3734.368,0.38359964
3736.374,0.38395889
3738.382,0.38439369
3740.392,0.38486263
3742.405,0.38529972
3744.419,0.38565911
3746.436,0.38593326
3748.455,0.38613637
3750.476,0.38628831
3752.499,0.38641857
3754.525,0.38656102
3756.553,0.38673698
3758.582,0.38694801
3760.614,0.38719309
3762.649,0.38747208
3764.685,0.38777592
3766.724,0.38808495
3768.764,0.38837694
3770.807,0.38862177
3772.853,0.38878986
3774.9,0.38889021
3776.95,0.38899398
3779.001,0.38918484
3781.056,0.3894799
3783.112,0.38982277
3785.17,0.39015552
3787.231,0.39046624
3789.294,0.3907675
3791.359,0.39105905
3793.427,0.39132507
3795.496,0.39155256
3797.568,0.39174533
3799.643,0.39193708
3801.719,0.39218693
3803.798,0.39252705
3805.879,0.39290849
3807.962,0.39323136
3810.048,0.39344413
3812.135,0.39359406
3814.225,0.39376935
3816.318,0.39401435
3818.412,0.39430932
3820.509,0.39461044
3822.609,0.39488398
3824.71,0.39511874
3826.814,0.39532015
3828.92,0.39549631
3831.029,0.39564907
3833.139,0.39579174
3835.252,0.39595826
3837.368,0.39617158
3839.486,0.39640621
3841.606,0.39660882
3843.728,0.39675744
3845.853,0.39687601
3847.98,0.3969961
3850.109,0.39713431
3852.241,0.39730899
3854.375,0.39754054
3856.512,0.39782015
3858.65,0.39810472
3860.792,0.39836139
3862.935,0.39859025
3865.081,0.39880564
3867.229,0.39901449
3869.38,0.39923028
3871.533,0.39947268
3873.689,0.39974376
3875.846,0.40002471
3878.007,0.40030341
3880.169,0.40058416
3882.334,0.40086085
3884.502,0.40111222
3886.672,0.40133757
3888.844,0.40156892
3891.019,0.40183095
3893.196,0.40211008
3895.375,0.40237655
3897.557,0.40262008
3899.742,0.40285377
3901.929,0.40309436
3904.118,0.40334912
3906.31,0.40360995
3908.504,0.40385447
3910.7,0.40407626
3912.9,0.40430995
3915.101,0.40460295
3917.305,0.40495302
3919.512,0.40530467
3921.721,0.40560771
3923.932,0.40586045
3926.146,0.40609129
3928.363,0.40633396
3930.581,0.40662483
3932.803,0.40698398
3935.027,0.40738653
3937.253,0.40777961
3939.482,0.40814137
3941.714,0.40850231
3943.948,0.40889708
3946.184,0.40932566
3948.423,0.40976838
3950.665,0.41021095
3952.909,0.41063185
3955.156,0.41100748
3957.405,0.4113456
3959.657,0.41169213
3961.911,0.41208484
3964.168,0.41252264
3966.427,0.41299153
3968.689,0.41349026
3970.954,0.4140127
3973.221,0.41453052
3975.491,0.41501739
3977.763,0.41546954
3980.038,0.41589111
3982.315,0.41627845
3984.595,0.41663498
3986.878,0.41697757
3989.163,0.41731916
3991.451,0.41766312
3993.742,0.41802045
3996.035,0.41840163
3998.33,0.41878546
4000.629,0.41912747
4002.93,0.41942106
4005.233,0.4197217
4007.54,0.42009042
4009.849,0.42053752
4012.16,0.42102633
4014.475,0.42150901
4016.791,0.4219482
4019.111,0.4223342
4021.433,0.42270286
4023.758,0.42311015
4026.086,0.42357483
4028.416,0.42407027
4030.749,0.42457796
4033.085,0.42511416
4035.423,0.42569054
4037.764,0.42628514
4040.108,0.42687233
4042.454,0.42744671
4044.804,0.42800613
4047.155,0.42854124
4049.51,0.42906905
4051.867,0.42963527
4054.228,0.43026285
4056.59,0.4309172
4058.956,0.4315501
4061.324,0.43214766
4063.695,0.43272503
4066.069,0.43330332
4068.446,0.43391339
4070.825,0.43458558
4073.207,0.43531217
4075.592,0.43604003
4077.98,0.43672414
4080.371,0.43736842
4082.764,0.43799724
4085.16,0.43862644
4087.559,0.43928147
4089.961,0.44000757
4092.365,0.44082827
4094.773,0.4417072
4097.183,0.44257823
4099.596,0.44340028
4102.012,0.4441713
4104.43,0.44491631
4106.852,0.44567553
4109.276,0.44647769
4111.703,0.44731174
4114.133,0.44814378
4116.566,0.44896765
4119.002,0.44980617
4121.441,0.45065521
4123.882,0.45147928
4126.327,0.45228054
4128.774,0.45311978
4131.224,0.45404364
4133.677,0.45502547
4136.133,0.45600692
4138.592,0.4569646
4141.054,0.45791091
4143.519,0.45886518
4145.987,0.45985305
4148.457,0.4608899
4150.931,0.46194126
4153.407,0.46293704
4155.887,0.46386302
4158.369,0.46480494
4160.854,0.46586508
4163.343,0.46704694
4165.834,0.46825592
4168.328,0.46938339
4170.826,0.47037465
4173.326,0.47124131
4175.829,0.47204823
4178.335,0.47287506
4180.844,0.47376873
4183.356,0.47474984
4185.872,0.47586272
4188.39,0.4771871
4190.911,0.47880464
4193.435,0.48081564
4195.963,0.48341264
4198.493,0.48688883
4201.026,0.49151723
4203.563,0.49743253
4206.102,0.50463106
4208.645,0.51303265
4211.19,0.52248103
4213.739,0.53272537
4216.291,0.54346113
4218.846,0.55439106
4221.404,0.56520484
4223.965,0.57553404
4226.529,0.58501102
4229.096,0.59337404
4231.666,0.60040302
4234.24,0.60572328
4236.816,0.60881352
4239.396,0.6093081
4241.979,0.607112
4244.565,0.60197431
4247.154,0.59329157
4249.746,0.58116165
4252.341,0.56775082
4254.94,0.55674743
4257.542,0.55133334
4260.146,0.55290957
4262.754,0.5608149
4265.366,0.57228088
4267.98,0.58321953
4270.598,0.59059868
4273.219,0.59425707
4275.843,0.59579067
4278.47,0.59651163
4281.1,0.59697168
4283.734,0.59744302
4286.371,0.5980525
4289.011,0.59856266
4291.655,0.59844647
4294.301,0.59738553
4296.951,0.59564599
4299.604,0.59386644
4302.261,0.59245335
4304.92,0.59120032
4307.583,0.58950923
4310.25,0.58700192
4312.919,0.58388808
4315.592,0.58075163
4318.268,0.57807998
4320.948,0.57601158
4323.631,0.57438388
4326.317,0.57292514
4329.006,0.57145843
4331.699,0.57001578
4334.395,0.56877345
4337.095,0.56786668
4339.797,0.5673097
4342.504,0.5670642
4345.213,0.56711381
4347.926,0.56743326
4350.642,0.56795764
4353.362,0.5686253
4356.085,0.56941822
4358.811,0.57032154
4361.541,0.57129945
4364.275,0.5723456
4367.011,0.57349725
4369.751,0.57476004
4372.495,0.57606687
4375.242,0.57735863
4377.992,0.57866906
4380.746,0.58008792
4383.504,0.58167385
4386.264,0.58343578
4389.029,0.58533851
4391.796,0.58729326
4394.567,0.58918673
4397.342,0.59097674
4400.12,0.59272802
4402.902,0.59451802
4405.687,0.59633624
4408.476,0.59810874
4411.268,0.59977667
4414.064,0.60132471
4416.863,0.6027781
4419.666,0.60420853
4422.472,0.60569048
4425.282,0.60722372
4428.096,0.60873504
4430.913,0.6101804
4433.734,0.61158952
4436.558,0.61298215
4439.386,0.61430466
4442.217,0.6155053
4445.052,0.61661049
4447.891,0.61767957
4450.733,0.61872328
4453.579,0.6197039
4456.428,0.62058019
4459.281,0.62132004
4462.138,0.62192282
4464.998,0.62245466
4467.863,0.6230117
4470.73,0.6236151
4473.602,0.62418618
4476.477,0.62466051
4479.355,0.62506605
4482.238,0.62545952
4485.124,0.62585486
4488.014,0.62625746
4490.908,0.62670048
4493.805,0.62718559
4496.706,0.62764478
4499.611,0.62802141
4502.519,0.62836103
4505.431,0.62876031
4508.347,0.62925564
4511.267,0.62981528
4514.191,0.63039238
4517.118,0.63094668
4520.049,0.63144478
4522.984,0.63188609
4525.923,0.6323204
4528.865,0.63281109
4531.812,0.63339223
4534.762,0.63407445
4537.716,0.63483709
4540.674,0.63561479
4543.635,0.63633373
4546.601,0.63699318
4549.57,0.63765558
4552.543,0.63834024
4555.521,0.63899179
4558.502,0.63957559
4561.487,0.64015061
4564.475,0.64079454
4567.468,0.64151462
4570.465,0.64227372
4573.465,0.64306088
4576.47,0.64388944
4579.478,0.64475442
4582.491,0.64563136
4585.507,0.64648533
4588.527,0.64727236
4591.551,0.64797083
4594.58,0.64862921
4597.612,0.64934314
4600.648,0.65015273
4603.688,0.6510282
4606.732,0.65196485
4609.781,0.65300476
4612.833,0.65413096
4615.889,0.65521017
4618.949,0.65612035
4622.014,0.65689176
4625.082,0.65766545
4628.155,0.65853495
4631.231,0.65948368
4634.312,0.66044679
4637.397,0.66138623
4640.485,0.66232696
4643.578,0.6633486
4646.675,0.66451975
4649.777,0.6658137
4652.882,0.66711203
4655.991,0.66829884
4659.105,0.66934814
4662.223,0.67032043
4665.345,0.6713229
4668.471,0.67246275
4671.601,0.67376267
4674.735,0.67509755
4677.874,0.67629618
4681.017,0.67733739
4684.164,0.67838313
4687.315,0.6795771
4690.471,0.68088655
4693.63,0.6821816
4696.794,0.68340452
4699.962,0.68458529
4703.135,0.68574907
4706.312,0.68688148
4709.493,0.68797169
4712.678,0.6890353
4715.868,0.69010742
4719.062,0.69122717
4722.26,0.6924025
4725.463,0.69357473
4728.669,0.69465304
4731.881,0.69561201
4735.096,0.69652013
4738.316,0.69746515
4741.541,0.69848313
4744.769,0.6995815
4748.002,0.70075609
4751.24,0.70195236
4754.482,0.70306915
4757.728,0.70406242
4760.979,0.70499224
4764.234,0.70593148
4767.494,0.70686557
4770.758,0.70774027
4774.026,0.70857284
4777.299,0.70945018
4780.577,0.71043321
4783.859,0.71148012
4787.145,0.71246716
4790.436,0.71326671
4793.732,0.71384737
4797.032,0.71431356
4800.336,0.71481053
4803.645,0.71538476
4806.959,0.71596817
4810.277,0.71651374
4813.6,0.71707804
4816.927,0.7177249
4820.259,0.71841164
4823.596,0.71903614
4826.937,0.71958118
4830.283,0.72014474
4833.633,0.72082564
4836.988,0.72160195
4840.348,0.72232217
4843.712,0.72282427
4847.081,0.72308479
4850.455,0.72325017
4853.833,0.72350403
4857.216,0.723903
4860.604,0.72437373
4863.996,0.72485727
4867.393,0.7253772
4870.795,0.72595219
4874.202,0.72652547
4877.613,0.72703106
4881.03,0.72748956
4884.451,0.7279883
4887.876,0.7285817
4891.307,0.72923997
4894.742,0.72985982
4898.182,0.73031657
4901.627,0.73055707
4905.077,0.73067365
4908.532,0.73086721
4911.991,0.73129387
4915.456,0.73194764
4918.925,0.73267942
4922.399,0.73331624
4925.878,0.73378127
4929.362,0.73414999
4932.851,0.73457355
4936.345,0.73512513
4939.844,0.73574753
4943.347,0.73639522
4946.856,0.73716925
4950.37,0.7381829
4953.888,0.73928531
4957.412,0.74005364
4960.941,0.7401923
4964.474,0.73986937
4968.013,0.73957071
4971.556,0.73965719
4975.105,0.7401295
4978.659,0.74074041
4982.218,0.74125458
4985.782,0.74161852
4989.351,0.74195406
4992.925,0.74238729
4996.504,0.74288723
5000.088,0.7433261
5003.678,0.74374805
5007.272,0.74447922
5010.872,0.74583376
5014.477,0.74767361
5018.087,0.74934524
5021.703,0.75014093
5025.323,0.74987647
5028.949,0.74899818
5032.58,0.74816554
5036.216,0.74777581
5039.857,0.74782644
5043.504,0.74812047
5047.156,0.7485145
5050.813,0.74898764
5054.475,0.74952517
5058.143,0.75003743
5061.816,0.75043428
5065.495,0.75078162
5069.179,0.75133655
5072.868,0.75235843
5076.562,0.75381533
5080.262,0.75526592
5083.967,0.75613171
5087.678,0.75618007
5091.394,0.75573851
5095.115,0.75537897
5098.842,0.75544102
5102.574,0.75587771
5106.312,0.7564588
5110.055,0.75701422
5113.804,0.7574883
5117.558,0.75787985
5121.318,0.75820638
5125.083,0.75853346
5128.854,0.75906215
5132.63,0.76015872
5136.412,0.762132
5140.199,0.76476758
5143.992,0.76711213
5147.791,0.76800808
5151.595,0.76710667
5155.405,0.76524311
5159.22,0.76369355
5163.041,0.76318388
5166.868,0.76358997
5170.7,0.76432368
5174.538,0.76487721
5178.382,0.76514619
5182.231,0.76546443
5186.086,0.76632805
5189.947,0.76796025
5193.814,0.77011081
5197.686,0.77233142
5201.564,0.77440534
5205.448,0.77630659
5209.338,0.77771601
5213.233,0.77792926
5217.134,0.77660532
5221.041,0.7745104
5224.954,0.77310706
5228.873,0.77328529
5232.798,0.77461407
5236.728,0.77584996
5240.665,0.77615335
5244.607,0.77571307
5248.555,0.77521548
5252.51,0.77506049
5256.47,0.77526086
5260.436,0.77581094
5264.408,0.77677101
5268.386,0.77801948
5272.37,0.77925656
5276.36,0.78041826
5280.356,0.78183465
5284.358,0.78371432
5288.367,0.78555549
5292.381,0.78641058
5296.401,0.78584904
5300.428,0.78446403
5304.46,0.78328061
5308.499,0.78286278
5312.544,0.78310403
5316.595,0.78363409
5320.652,0.78416215
5324.715,0.78453901
5328.785,0.7849105
5332.86,0.78600942
5336.942,0.78894659
5341.031,0.79415123
5345.125,0.80025718
5349.226,0.80435494
5353.333,0.80422167
5357.446,0.80050142
5361.566,0.79604083
5365.692,0.79328449
5369.824,0.7927655
5373.962,0.79354784
5378.107,0.79451167
5382.259,0.79522112
5386.417,0.79588317
5390.581,0.79682002
5394.751,0.79816992
5398.928,0.80009408
5403.112,0.80317531
5407.302,0.80834291
5411.498,0.81598254
5415.701,0.82477231
5419.911,0.83163258
5424.127,0.83393629
5428.349,0.83232738
5432.579,0.83035475
5436.814,0.83123266
5441.057,0.83579935
5445.305,0.84323672
5449.561,0.85308673
5453.823,0.86618138
5458.092,0.88337922
5462.368,0.90372066
5466.65,0.92457376
5470.939,0.94420445
5475.234,0.96367446
5479.537,0.98544519
5483.846,0.0101112635
5488.162,0.0104178369
5492.484,0.0107988919
5496.814,0.0112960875
5501.15,0.0119533594
5505.493,0.0128207607
5509.843,0.013993269
5514.2,0.0156195674
5518.564,0.0177623657
5522.934,0.0200086598
5527.312,0.0210036402
5531.696,0.019697467
5536.087,0.0158940269
5540.486,0.0114970464
5544.891,0.79777456
5549.303,0.55796382
5553.723,0.40481303
5558.149,0.31181904
5562.582,0.26063056
5567.023,0.24071439
5571.47,0.24406996
5575.925,0.26039937
5580.387,0.28064186
5584.856,0.30107041
5589.332,0.32056937
5593.815,0.33941885
5598.305,0.35753093
5602.803,0.37451197
5607.307,0.39016673
5611.819,0.40468904
5616.339,0.41812896
5620.865,0.43015875
5625.399,0.44049685
5629.94,0.44930613
5634.489,0.45713247
5639.044,0.46464086
5643.607,0.47237652
5648.178,0.48048539
5652.756,0.48859498
5657.341,0.49614458
5661.934,0.50286662
5666.534,0.50888281
5671.142,0.51441473
5675.757,0.51959446
5680.379,0.52452278
5685.01,0.5292805
5689.647,0.53383499
5694.293,0.53811085
5698.945,0.54218131
5703.606,0.54624866
5708.274,0.55042293
5712.949,0.55465661
5717.633,0.55891316
5722.324,0.56319341
5727.022,0.56736189
5731.729,0.57114008
5736.443,0.57436632
5741.165,0.5771501
5745.894,0.57970209
5750.631,0.58211621
5755.377,0.58443154
5760.13,0.58682322
5764.89,0.58957872
5769.659,0.59282253
5774.436,0.59630212
5779.22,0.59955193
5784.012,0.6022434
5788.813,0.60441629
5793.621,0.60645067
5798.437,0.60873138
5803.262,0.61130005
5808.094,0.61390944
5812.934,0.61636468
5817.782,0.61868303
5822.639,0.62093869
5827.503,0.62309269
5832.376,0.62508749
5837.257,0.62700364
5842.146,0.62902186
5847.043,0.63130088
5851.948,0.63389084
5856.862,0.63666651
5861.783,0.63933783
5866.714,0.64162854
5871.652,0.64345959
5876.598,0.64490555
5881.553,0.64601462
5886.517,0.64679199
5891.488,0.64741753
5896.468,0.64829601
5901.457,0.64976811
5906.454,0.65184073
5911.459,0.65423131
5916.473,0.65660921
5921.495,0.65877664
5926.526,0.66067261
5931.565,0.66229265
5936.613,0.66362657
5941.67,0.66471723
5946.735,0.66574474
5951.809,0.66695288
5956.891,0.66844523
5961.982,0.67010111
5967.082,0.67174749
5972.19,0.67335821
5977.307,0.67490245
5982.433,0.67607706
5987.568,0.67652961
5992.711,0.67643744
5997.864,0.67650891
6003.025,0.67719939
6008.195,0.67820246
6013.374,0.67891483
6018.562,0.67930161
6023.759,0.67998015
6028.964,0.68133985
6034.179,0.68292624
6039.403,0.68380136
6044.636,0.68365051
6049.878,0.68353433
6055.129,0.68472397
6060.389,0.68706187
6065.658,0.68918782
6070.936,0.68983205
6076.224,0.68895
6081.52,0.68777984
6086.826,0.68763447
6092.141,0.68890742
6097.466,0.69110417
6102.8,0.69323738
6108.143,0.69434729
6113.495,0.69423513
6118.857,0.69371617
6124.228,0.69382722
6129.609,0.69495361
6134.999,0.69676341
6140.398,0.69865553
6145.807,0.70016976
6151.226,0.70112857
6156.654,0.70162902
6162.091,0.70199275
6167.539,0.70258538
6172.996,0.70353237
6178.462,0.70462469
6183.938,0.7055985
6189.424,0.70651384
6194.92,0.70768343
6200.425,0.70923528
6205.94,0.71091564
6211.465,0.71232185
6217.0,0.71327555
6222.544,0.71394927
6228.099,0.71462819
6233.663,0.71542767
6239.237,0.7162919
6244.822,0.7171801
6250.416,0.7181633
6256.02,0.71931098
6261.635,0.72055605
6267.259,0.72171875
6272.893,0.72266391
6278.538,0.7233989
6284.193,0.72405707
6289.858,0.72479839
6295.533,0.72570193
6301.218,0.72671254
6306.914,0.72774095
6312.619,0.72885317
6318.336,0.73028279
6324.062,0.73212249
6329.799,0.73402364
6335.546,0.73535927
6341.304,0.73591308
6347.072,0.73630993
6352.851,0.73738623
6358.64,0.73925117
6364.44,0.74117559
6370.25,0.74230099
6376.071,0.74251808
6381.903,0.74263754
6387.745,0.74363789
6393.598,0.74593172
6399.461,0.74913557
6405.335,0.7521415
6411.221,0.75367503
6417.116,0.75342855
6423.023,0.75234565
6428.941,0.75154947
6434.869,0.75149091
6440.809,0.75200882
6446.759,0.7528249
6452.72,0.75398559
6458.693,0.7558876
6464.676,0.75882829
6470.671,0.76246079
6476.676,0.76562942
6482.693,0.76695583
6488.721,0.76613819
6494.76,0.76458485
6500.81,0.76405558
6506.872,0.76501997
6512.945,0.7666403
6519.029,0.76785798
6525.124,0.76844541
6531.231,0.76910929
6537.35,0.77060299
6543.48,0.77294527
6549.621,0.77549927
6555.774,0.77760853
6561.938,0.77908786
6568.114,0.78016833
6574.302,0.78108705
6580.501,0.78179452
6586.712,0.78206872
6592.934,0.78192697
6599.169,0.78192947
6605.415,0.78296739
6611.673,0.78553193
6617.943,0.78902583
6624.224,0.79170062
6630.518,0.79171531
6636.823,0.78908025
6643.141,0.78602775
6649.47,0.78477053
6655.812,0.78578885
6662.166,0.78799403
6668.532,0.78967675
6674.91,0.78983124
6681.3,0.78912071
6687.702,0.78917011
6694.117,0.79087145
6700.544,0.79355639
6706.983,0.79554276
6713.435,0.79558263
6719.899,0.79397062
6726.375,0.79208867
6732.864,0.79107212
6739.365,0.79117536
6745.879,0.79210676
6752.406,0.79364388
6758.945,0.79584627
6765.497,0.79869165
6772.062,0.80153883
6778.639,0.80312164
6785.229,0.80254055
6791.832,0.80041667
6798.448,0.79849195
6805.076,0.7979827
6811.718,0.79869829
6818.372,0.79961535
6825.039,0.80021818
6831.72,0.80116858
6838.413,0.80340572
6845.12,0.80676584
6851.84,0.80959212
6858.573,0.80997334
6865.319,0.80784631
6872.078,0.80512436
6878.851,0.80358932
6885.637,0.80363059
6892.437,0.8045657
6899.25,0.80544311
6906.076,0.80566535
6912.916,0.80523959
6919.769,0.80470313
6926.636,0.80485528
6933.517,0.8062677
6940.411,0.80876486
6947.319,0.81133154
6954.241,0.81281371
6961.176,0.81296513
6968.125,0.81257608
6975.089,0.81250563
6982.066,0.81293761
6989.057,0.81353324
6996.062,0.81400793
7003.081,0.8144731
7010.114,0.81533179
7017.161,0.81693516
7024.223,0.81924906
7031.298,0.82164314
7038.388,0.82308002
7045.492,0.82288755
7052.611,0.82143648
7059.743,0.81982132
7066.891,0.81892474
7074.052,0.81893503
7081.229,0.81955995
7088.419,0.8204709
7095.625,0.82149657
7102.845,0.82251489
7110.079,0.82340255
7117.329,0.82420531
7124.593,0.82523143
7131.872,0.82680532
7139.166,0.82886071
7146.475,0.83080045
7153.799,0.83185553
7161.137,0.83171996
7168.491,0.83090488
7175.86,0.83039341
7183.244,0.83085667
7190.643,0.83213346
7198.058,0.83339777
7205.487,0.83391325
7212.933,0.83368957
7220.393,0.83335229
7227.869,0.83348577
7235.36,0.83427176
7242.867,0.83561302
7250.39,0.8373074
7257.928,0.8390057
7265.481,0.84022442
7273.051,0.84063727
7280.636,0.84037926
7288.237,0.83996634
7295.854,0.83994477
7303.487,0.84063995
7311.135,0.84206484
7318.8,0.84384809
7326.481,0.8452988
7334.178,0.8458208
7341.891,0.84542137
7349.62,0.84470826
7357.366,0.84432005
7365.128,0.84443408
7372.906,0.84482476
7380.701,0.84524547
7388.512,0.84564787
7396.34,0.84606982
7404.184,0.84647208
7412.045,0.84680434
7419.922,0.84720835
7427.817,0.84803417
7435.728,0.8495279
7443.656,0.85146057
7451.601,0.85312661
7459.562,0.85384299
7467.541,0.85350668
7475.537,0.85264908
7483.55,0.85195195
7491.58,0.85177514
7499.628,0.85206356
7507.692,0.85255945
7515.774,0.85304452
7523.874,0.8534549
7531.99,0.85386786
7540.125,0.8544021
7548.277,0.8551104
7556.446,0.85593281
7564.633,0.8567298
7572.838,0.85736727
7581.061,0.85779802
7589.302,0.85808307
7597.56,0.85832496
7605.837,0.85857734
7614.131,0.8588228
7622.444,0.85904546
7630.774,0.85927671
7639.123,0.85954962
7647.491,0.85984584
7655.876,0.86012885
7664.28,0.86040346
7672.702,0.86071146
7681.143,0.86107452
7689.602,0.86147544
7698.08,0.86187993
7706.577,0.86226063
7715.093,0.86261147
7723.627,0.86296712
7732.18,0.86338375
7740.752,0.86386563
7749.343,0.86432998
7757.953,0.86468332
7766.583,0.86492467
7775.231,0.86514104
7783.899,0.86541153
7792.586,0.86575339
7801.292,0.86614564
7810.018,0.866559
7818.764,0.86696823
7827.529,0.86737355
7836.313,0.86780628
7845.117,0.8682823
7853.942,0.86875901
7862.786,0.86916536
7871.649,0.86948923
7880.533,0.86979271
7889.437,0.87015919
7898.361,0.87062331
7907.305,0.87114355
7916.27,0.8716176
7925.254,0.87195336
7934.26,0.87216213
7943.285,0.87236576
7952.331,0.8726766
7961.398,0.87309431
7970.485,0.87354379
7979.594,0.87398561
7988.723,0.8744388
7997.872,0.87491489
8007.043,0.87538358
8016.235,0.87581087
8025.448,0.87619532
8034.682,0.8765589
8043.937,0.87693429
8053.214,0.87734419
8062.512,0.87777421
8071.832,0.87817228
8081.173,0.87850802
8090.535,0.87881837
8099.92,0.87915754
8109.326,0.87952894
8118.754,0.87989391
8128.204,0.88023565
8137.676,0.88056698
8147.169,0.88088881
8156.686,0.8811869
8166.224,0.881462
8175.785,0.88173063
8185.368,0.88199542
8194.973,0.88224568
8204.601,0.88249382
8214.252,0.8827561
8223.925,0.88301721
8233.621,0.88323889
8243.34,0.88340319
8253.082,0.88353368
8262.847,0.88366839
8272.635,0.88384413
8282.446,0.88408264
8292.281,0.88436938
8302.139,0.88466229
8312.02,0.88494335
8321.925,0.88524211
8331.853,0.88557608
8341.805,0.88590174
8351.781,0.8861636
8361.781,0.88637552
8371.804,0.88660101
8381.852,0.88688159
8391.924,0.88721346
8402.02,0.88759076
8412.14,0.88800064
8422.285,0.88838713
8432.454,0.88867636
8442.648,0.88884923
8452.866,0.88895444
8463.109,0.88906443
8473.377,0.88922888
8483.67,0.88945844
8493.988,0.88971974
8504.331,0.88995491
8514.699,0.89014615
8525.092,0.89035033
8535.511,0.89063489
8545.955,0.89099638
8556.425,0.89136583
8566.921,0.89167599
8577.442,0.89189222
8587.989,0.89201342
8598.562,0.89209536
8609.161,0.89224054
8619.786,0.89251892
8630.437,0.89289721
8641.115,0.89328642
8651.819,0.89362716
8662.55,0.8939076
8673.307,0.89412985
8684.091,0.89431782
8694.902,0.89452416
8705.739,0.8947837
8716.604,0.89505868
8727.496,0.89528854
8738.415,0.89546797
8749.361,0.89563788
8760.335,0.89582059
8771.336,0.89601284
8782.365,0.89622732
8793.422,0.89648805
8804.507,0.89677995
8815.619,0.89706688
8826.76,0.89733541
8837.928,0.89760361
8849.125,0.89788506
8860.351,0.89818389
8871.604,0.89850083
8882.887,0.8988137
8894.198,0.89907439
8905.538,0.89927369
8916.907,0.89946919
8928.305,0.89971896
8939.732,0.8999998
8951.188,0.90024441
8962.673,0.90043187
8974.189,0.90059581
8985.733,0.90076367
8997.308,0.90094042
9008.912,0.90113468
9020.546,0.90134264
9032.21,0.90152799
9043.905,0.90165991
9055.629,0.90176287
9067.384,0.90187362
9079.17,0.90198987
9090.986,0.90209009
9102.833,0.90218168
9114.711,0.90228504
9126.62,0.90240096
9138.56,0.90253127
9150.531,0.90269515
9162.534,0.90287534
9174.568,0.90298957
9186.634,0.90297985
9198.731,0.90290584
9210.86,0.90288813
9223.022,0.90298569
9235.215,0.90317845
9247.441,0.90342424
9259.699,0.90367598
9271.99,0.90387012
9284.313,0.90397829
9296.669,0.90405013
9309.058,0.90415419
9321.48,0.90429988
9333.935,0.90446352
9346.423,0.90465004
9358.945,0.90487568
9371.5,0.90512002
9384.089,0.90534951
9396.712,0.9055668
9409.369,0.90578732
9422.06,0.9059998
9434.785,0.9061924
9447.545,0.90639076
9460.339,0.90662355
9473.167,0.906881
9486.031,0.90714891
9498.929,0.90743279
9511.863,0.90771419
9524.832,0.90792752
9537.836,0.90804317
9550.876,0.9081281
9563.951,0.90827139
9577.062,0.90847617
9590.209,0.90868503
9603.393,0.90886382
9616.612,0.90901674
9629.868,0.90914856
9643.16,0.90927529
9656.49,0.90943662
9669.856,0.90964135
9683.259,0.90983705
9696.699,0.90997672
9710.176,0.91008666
9723.691,0.91022167
9737.244,0.91038395
9750.834,0.91053845
9764.463,0.91067086
9778.129,0.91077284
9791.834,0.91082554
9805.577,0.91083401
9819.359,0.91085679
9833.18,0.91094382
9847.039,0.91107031
9860.938,0.91118081
9874.875,0.91125946
9888.853,0.91132381
9902.869,0.91137481
9916.926,0.91141262
9931.022,0.91146112
9945.159,0.9115348
9959.336,0.91160345
9973.553,0.91163505
9987.811,0.91164215
10002.109,0.91164283
10016.449,0.91162046
10030.83,0.91156307
10045.252,0.91151298
10059.715,0.91152022
10074.221,0.91157613
10088.768,0.91162985
10103.357,0.91166383
10117.988,0.91168174
10132.662,0.9116734
10147.378,0.91163144
10162.137,0.91158504
10176.939,0.91157436
10191.784,0.91160701
10206.672,0.91167308
10221.604,0.911776
10236.58,0.91190275
10251.6,0.91199998
10266.663,0.91202603
10281.771,0.91201555
10296.924,0.9120274
10312.121,0.91207243
10327.363,0.91212305
10342.65,0.91217609
10357.982,0.912245
10373.36,0.91232779
10388.784,0.91242231
10404.253,0.91255845
10419.769,0.91275
10435.331,0.912955
10450.939,0.9131058
10466.594,0.91318077
10482.296,0.91320331
10498.045,0.91319681
10513.842,0.91318988
10529.686,0.91322541
10545.577,0.91331202
10561.517,0.91340005
10577.505,0.91345297
10593.542,0.91350796
10609.627,0.91360956
10625.761,0.91372918
10641.944,0.91381338
10658.176,0.91387625
10674.458,0.91397532
10690.79,0.91410836
10707.172,0.91421702
10723.604,0.91426805
10740.086,0.91427898
10756.619,0.91427113
10773.203,0.91426341
10789.839,0.91429324
10806.525,0.91438402
10823.264,0.91450847
10840.054,0.91462828
10856.896,0.91474786
10873.791,0.91487622
10890.738,0.91497276
10907.738,0.91499898
10924.791,0.91499325
10941.898,0.91502615
10959.058,0.91509978
10976.272,0.91516303
10993.541,0.91518531
11010.863,0.91516389
11028.24,0.9150929
11045.672,0.91499557
11063.16,0.91495002
11080.702,0.91501535
11098.301,0.91515409
11115.955,0.91529407
11133.665,0.91542921
11151.432,0.91558354
11169.256,0.91573188
11187.137,0.91583661
11205.075,0.91592885
11223.07,0.9160751
11241.124,0.91627881
11259.235,0.91649662
11277.405,0.91671076
11295.634,0.91692205
11313.921,0.9171174
11332.268,0.91730754
11350.675,0.91754891
11369.141,0.91784945
11387.667,0.91811495
11406.254,0.9182667
11424.901,0.91836164
11443.61,0.9185176
11462.38,0.9187587
11481.211,0.91902792
11500.105,0.91927884
11519.06,0.91947983
11538.079,0.91958571
11557.16,0.91960046
11576.304,0.9196081
11595.511,0.91967269
11614.783,0.91974924
11634.118,0.91978701
11653.518,0.91983822
11672.983,0.91997799
11692.513,0.92017628
11712.108,0.92034824
11731.769,0.92047327
11751.496,0.92057699
11771.29,0.92065502
11791.15,0.92070159
11811.077,0.92076541
11831.072,0.92087934
11851.134,0.9209914
11871.265,0.92104924
11891.464,0.92108364
11911.731,0.92113506
11932.068,0.92116726
11952.475,0.92114263
11972.951,0.92110192
11993.497,0.92108541
12014.114,0.92103623
12034.802,0.92088506
12055.562,0.9206671
12076.393,0.92046153
12097.296,0.9202861
12118.271,0.92014713
12139.32,0.92011426
12160.441,0.92022643
12181.636,0.92039466
12202.905,0.92050761
12224.249,0.92057613
12245.667,0.92067353
12267.16,0.9207869
12288.729,0.92084511
12310.373,0.92082742
12332.094,0.92075405
12353.892,0.92062853
12375.767,0.9204825
12397.719,0.92040921
12419.75,0.92045919
12441.859,0.9205685
12464.046,0.92066224
12486.313,0.92074667
12508.659,0.92081864
12531.086,0.92079552
12553.593,0.92064153
12576.18,0.92045902
12598.85,0.9203509
12621.601,0.9202706
12644.434,0.92012916
12667.35,0.91994118
12690.349,0.9197588
12713.432,0.91956287
12736.599,0.91933507
12759.85,0.91914456
12783.187,0.91903916
12806.608,0.91893017
12830.116,0.91870452
12853.71,0.91837376
12877.391,0.91800374
12901.159,0.91758
12925.016,0.917079
12948.96,0.91658532
12972.993,0.91621136
12997.116,0.91594474
13021.329,0.91570234
13045.631,0.91545716
13070.025,0.91520653
13094.51,0.91489155
13119.087,0.91447665
13143.756,0.91404059
13168.518,0.91366386
13193.373,0.91329051
13218.322,0.91283103
13243.366,0.9123234
13268.505,0.911868
13293.74,0.91146185
13319.07,0.91104107
13344.497,0.91060953
13370.021,0.91020592
13395.644,0.90980806
13421.364,0.90939547
13447.183,0.9090398
13473.102,0.90878207
13499.121,0.90850626
13525.24,0.90807232
13551.461,0.90751776
13577.783,0.9069868
13604.208,0.90652383
13630.736,0.90608388
13657.367,0.90565111
13684.103,0.90520106
13710.943,0.90461832
13737.889,0.90383191
13764.941,0.90296918
13792.099,0.90221583
13819.365,0.90157137
13846.739,0.90090179
13874.221,0.90015378
13901.813,0.89935082
13929.515,0.89844738
13957.327,0.89737756
13985.25,0.8962006
14013.285,0.8950209
14041.433,0.89382155
14069.694,0.89253789
14098.068,0.8912296
14126.558,0.88997628
14155.163,0.88868043
14183.883,0.88717987
14212.721,0.88549227
14241.676,0.88374519
14270.749,0.88191293
14299.94,0.87984931
14329.252,0.8775266
14358.684,0.87502736
14388.237,0.87235179
14417.911,0.86946318
14447.709,0.866455
14477.629,0.86342527
14507.674,0.86024082
14537.844,0.85669805
14568.139,0.85283879
14598.561,0.84881238
14629.109,0.84448314
14659.786,0.83953326
14690.592,0.83392308
14721.528,0.82794262
14752.594,0.82182989
14783.791,0.81562464
14815.121,0.8092495
14846.583,0.80233953
14878.179,0.79416641
14909.91,0.78433837
14941.777,0.77364244
14973.78,0.76347877
15005.92,0.75412127
15038.198,0.74435751
15070.616,0.73293537
15103.173,0.71953842
15135.871,0.70437017
15168.712,0.68758258
15201.695,0.66930536
15234.821,0.64966409
15268.092,0.62855194
15301.509,0.60591051
15335.072,0.58226584
15368.783,0.55842233
15402.642,0.53450952
15436.651,0.51025002
15470.81,0.485999
15505.12,0.46246284
15539.583,0.43944395
15574.199,0.41630296
15608.97,0.39326759
15643.896,0.37124477
15678.979,0.3503205
15714.22,0.33018803
15749.619,0.31153063
15785.178,0.29539529
15820.897,0.28119618
15856.779,0.2674944
15892.824,0.25401116
15929.033,0.24181582
15965.407,0.23090587
