Database of Origin,University of Winnipeg Spectrophotometer Facility
Sample Description,"HOSERLab master pyroxenes, FTIR data"
Date Added,2016-12-14 03:34:49.896255

Data ID,FTIR_PYX_13         
Sample ID,PYX112
Mineral Name,Orthopyroxene
Grain Size,<45 um
Viewing Geometry,"i=30, e=0"
Material Class,Inosilicate

Wavelength
2000.56,0.34447851
2001.142,0.3445115
2001.725,0.34442393
2002.307,0.34437449
2002.891,0.34441709
2003.474,0.34461414
2004.058,0.34499146
2004.643,0.34537131
2005.227,0.34553473
2005.812,0.34553291
2006.397,0.34557971
2006.983,0.34574151
2007.569,0.34595602
2008.155,0.34623332
2008.742,0.34658613
2009.329,0.34689356
2009.916,0.34702685
2010.504,0.34701555
2011.092,0.34697155
2011.68,0.34696948
2012.269,0.34705096
2012.858,0.3472496
2013.447,0.34755145
2014.037,0.34789092
2014.627,0.34818459
2015.217,0.34837562
2015.808,0.34846464
2016.399,0.34851208
2016.99,0.34858712
2017.582,0.34875486
2018.174,0.3490799
2018.766,0.34954205
2019.359,0.34997781
2019.952,0.35024782
2020.546,0.35039001
2021.139,0.35050154
2021.733,0.35057734
2022.328,0.35060548
2022.923,0.35065521
2023.518,0.35075104
2024.113,0.35082943
2024.709,0.35091525
2025.305,0.35111683
2025.902,0.35140621
2026.499,0.35162797
2027.096,0.35175312
2027.693,0.3518814
2028.291,0.35203071
2028.89,0.35215801
2029.488,0.35233449
2030.087,0.35265102
2030.686,0.35302976
2031.286,0.35330316
2031.886,0.35342644
2032.486,0.35349664
2033.087,0.35364414
2033.688,0.35396631
2034.289,0.35446749
2034.891,0.35500305
2035.493,0.35535485
2036.096,0.35540556
2036.698,0.35524746
2037.302,0.355112
2037.905,0.35516787
2038.509,0.35538401
2039.113,0.35564423
2039.718,0.35593641
2040.322,0.35630902
2040.928,0.35668637
2041.533,0.35692603
2042.139,0.35701195
2042.746,0.35703588
2043.352,0.3570747
2043.959,0.35721592
2044.567,0.35753764
2045.174,0.35794203
2045.782,0.35820838
2046.391,0.35830581
2047.0,0.35839867
2047.609,0.35853046
2048.218,0.3586121
2048.828,0.35871365
2049.438,0.3590096
2050.049,0.35946433
2050.66,0.35989609
2051.271,0.36027198
2051.883,0.3606291
2052.495,0.36086159
2053.107,0.36088012
2053.72,0.36083535
2054.333,0.36093319
2054.947,0.36118977
2055.56,0.36150338
2056.175,0.36178928
2056.789,0.36196185
2057.404,0.36198632
2058.019,0.36197579
2058.635,0.36207872
2059.251,0.36230644
2059.867,0.362603
2060.484,0.36296549
2061.101,0.36337647
2061.718,0.36374415
2062.336,0.36401435
2062.954,0.36422152
2063.573,0.36441736
2064.192,0.3646437
2064.811,0.36493141
2065.431,0.36522599
2066.051,0.36542581
2066.671,0.36555437
2067.292,0.36573872
2067.913,0.36597872
2068.534,0.36617068
2069.156,0.36634827
2069.778,0.36666308
2070.401,0.36713061
2071.024,0.36763604
2071.647,0.36812514
2072.271,0.36857409
2072.895,0.3688898
2073.519,0.36904906
2074.144,0.36918559
2074.769,0.36937594
2075.395,0.36953516
2076.02,0.36964524
2076.647,0.36982454
2077.273,0.37005739
2077.9,0.37016155
2078.528,0.37013979
2079.155,0.37023965
2079.784,0.37058565
2080.412,0.37103475
2081.041,0.37144791
2081.67,0.37181292
2082.3,0.37209428
2082.93,0.37224109
2083.56,0.37235136
2084.191,0.37258177
2084.822,0.37293443
2085.454,0.37330057
2086.085,0.37364329
2086.718,0.37397118
2087.35,0.37425523
2087.983,0.37450137
2088.617,0.37479215
2089.251,0.37515449
2089.885,0.37551302
2090.519,0.37581552
2091.154,0.37609443
2091.789,0.37638051
2092.425,0.37667261
2093.061,0.37697478
2093.697,0.37727975
2094.334,0.3775492
2094.971,0.37776131
2095.609,0.37792633
2096.247,0.3780693
2096.885,0.37823913
2097.524,0.37848354
2098.163,0.37875788
2098.803,0.37897236
2099.443,0.37916079
2100.083,0.37943574
2100.723,0.37976307
2101.364,0.38000128
2102.006,0.38015355
2102.648,0.38034079
2103.29,0.38056912
2103.932,0.38078622
2104.575,0.38105741
2105.219,0.3814341
2105.862,0.38178693
2106.506,0.38202004
2107.151,0.38224315
2107.796,0.38253082
2108.441,0.38275718
2109.087,0.38287669
2109.733,0.38306221
2110.379,0.38340054
2111.026,0.38373448
2111.673,0.38394924
2112.321,0.38411808
2112.969,0.38428814
2113.617,0.38440899
2114.266,0.38452058
2114.915,0.38474681
2115.565,0.38510099
2116.215,0.38549078
2116.865,0.38589661
2117.516,0.38635428
2118.167,0.38681764
2118.819,0.38720524
2119.471,0.3875425
2120.123,0.38791142
2120.776,0.38828075
2121.429,0.38853271
2122.082,0.38867585
2122.736,0.38889088
2123.391,0.38928636
2124.045,0.3897463
2124.7,0.39012465
2125.356,0.39043753
2126.012,0.3907317
2126.668,0.39095163
2127.325,0.39110763
2127.982,0.39136043
2128.64,0.39177651
2129.297,0.3922247
2129.956,0.39263941
2130.614,0.3930855
2131.274,0.39347746
2131.933,0.39361177
2132.593,0.39356036
2133.253,0.39362068
2133.914,0.39384648
2134.575,0.39404773
2135.237,0.39420285
2135.899,0.39443709
2136.561,0.39470086
2137.224,0.39488473
2137.887,0.39510258
2138.55,0.39549321
2139.214,0.39595049
2139.879,0.39634087
2140.544,0.39672059
2141.209,0.3971131
2141.874,0.39740099
2142.54,0.39760303
2143.207,0.39791882
2143.873,0.39838167
2144.541,0.39881068
2145.208,0.39913317
2145.876,0.39943851
2146.545,0.39973284
2147.214,0.39995214
2147.883,0.40013903
2148.553,0.40036585
2149.223,0.40058471
2149.893,0.40072539
2150.564,0.40083052
2151.235,0.40098842
2151.907,0.4012503
2152.579,0.4016349
2153.252,0.40208513
2153.925,0.40246783
2154.598,0.40273858
2155.272,0.40301904
2155.946,0.4034016
2156.621,0.40381065
2157.296,0.40414521
2157.972,0.40441664
2158.647,0.40467787
2159.324,0.40495733
2160.001,0.40528763
2160.678,0.40566051
2161.355,0.4059828
2162.033,0.40620876
2162.712,0.40645024
2163.39,0.40682455
2164.07,0.40728884
2164.749,0.40773911
2165.429,0.40815038
2166.11,0.40852117
2166.791,0.40882533
2167.472,0.40910919
2168.154,0.40947635
2168.836,0.4099058
2169.519,0.41025602
2170.202,0.41050635
2170.885,0.41078161
2171.569,0.41111478
2172.254,0.41140433
2172.938,0.41164364
2173.624,0.41196248
2174.309,0.41241015
2174.995,0.41290711
2175.682,0.41339558
2176.368,0.41385002
2177.056,0.41418615
2177.743,0.41435456
2178.432,0.41446506
2179.12,0.41464237
2179.809,0.41484793
2180.499,0.41499455
2181.189,0.41511823
2181.879,0.41532166
2182.57,0.41565558
2183.261,0.41612376
2183.952,0.41667744
2184.644,0.41716635
2185.337,0.4174569
2186.03,0.41759632
2186.723,0.4177389
2187.417,0.41796353
2188.111,0.41827718
2188.806,0.41870204
2189.501,0.41923704
2190.196,0.41980808
2190.892,0.42032356
2191.589,0.42071631
2192.285,0.42093037
2192.983,0.4209726
2193.68,0.42095988
2194.379,0.42101756
2195.077,0.42117453
2195.776,0.42141993
2196.476,0.42177443
2197.175,0.42224606
2197.876,0.42280589
2198.577,0.42342495
2199.278,0.42405013
2199.979,0.42457101
2200.682,0.42492232
2201.384,0.42516255
2202.087,0.42537049
2202.79,0.42554892
2203.494,0.42569434
2204.199,0.42587421
2204.903,0.42616757
2205.609,0.4265821
2206.314,0.4270693
2207.02,0.4275699
2207.727,0.42803892
2208.434,0.42845019
2209.141,0.42878258
2209.849,0.42901932
2210.557,0.42918748
2211.266,0.42936052
2211.975,0.42959399
2212.685,0.42989795
2213.395,0.43025898
2214.106,0.4306202
2214.817,0.43088185
2215.528,0.43101061
2216.24,0.43109255
2216.952,0.43121706
2217.665,0.43140137
2218.379,0.43165519
2219.092,0.43198522
2219.806,0.43232378
2220.521,0.43260918
2221.236,0.43289317
2221.952,0.43321405
2222.668,0.43346692
2223.384,0.43357936
2224.101,0.43366421
2224.818,0.43384625
2225.536,0.43410247
2226.254,0.43438316
2226.973,0.43468263
2227.692,0.43494965
2228.412,0.43512022
2229.132,0.43522332
2229.853,0.43529782
2230.574,0.43531186
2231.295,0.43528719
2232.017,0.43532454
2232.74,0.43542889
2233.462,0.43554521
2234.186,0.43573685
2234.91,0.43606142
2235.634,0.43637288
2236.359,0.43654367
2237.084,0.43670616
2237.809,0.43700241
2238.536,0.43734374
2239.262,0.43762818
2239.989,0.43786145
2240.717,0.43796417
2241.445,0.437852
2242.173,0.43772698
2242.902,0.43783112
2243.631,0.43803238
2244.361,0.43810212
2245.092,0.43815724
2245.822,0.43836081
2246.554,0.43854964
2247.285,0.43860464
2248.017,0.4387635
2248.75,0.43917615
2249.483,0.43964087
2250.217,0.44004225
2250.951,0.44050839
2251.686,0.4409879
2252.421,0.4412502
2253.156,0.44136391
2253.892,0.44160449
2254.628,0.44194797
2255.365,0.44218889
2256.103,0.44238928
2256.841,0.4427162
2257.579,0.4430617
2258.318,0.4432555
2259.057,0.44339213
2259.797,0.44360341
2260.537,0.44380847
2261.278,0.44395225
2262.019,0.44417165
2262.761,0.44452531
2263.503,0.44484755
2264.246,0.44500547
2264.989,0.44506561
2265.732,0.44512696
2266.477,0.44519495
2267.221,0.44527568
2267.966,0.44543703
2268.712,0.44573127
2269.458,0.44611817
2270.204,0.44649774
2270.951,0.44679914
2271.699,0.4470129
2272.447,0.44713726
2273.195,0.44715359
2273.944,0.44710087
2274.694,0.44710025
2275.444,0.44723398
2276.194,0.44748255
2276.945,0.44780967
2277.696,0.44818265
2278.448,0.44850374
2279.201,0.44868372
2279.954,0.44879321
2280.707,0.44896457
2281.461,0.44914455
2282.215,0.44915665
2282.97,0.44899924
2283.725,0.44886381
2284.481,0.44884529
2285.237,0.44885817
2285.994,0.44885264
2286.752,0.44889551
2287.509,0.4490133
2288.268,0.44914109
2289.026,0.44925254
2289.786,0.44936793
2290.545,0.44944074
2291.306,0.4494038
2292.067,0.44933014
2292.828,0.44935751
2293.59,0.44946745
2294.352,0.44952932
2295.115,0.44953595
2295.878,0.44956397
2296.642,0.44955023
2297.406,0.44939096
2298.171,0.44921445
2298.936,0.44926395
2299.702,0.44953332
2300.468,0.44981522
2301.235,0.45004165
2302.002,0.45027635
2302.77,0.45045145
2303.539,0.45044112
2304.307,0.45033274
2305.077,0.45031898
2305.847,0.45039147
2306.617,0.45040868
2307.388,0.45036957
2308.159,0.45035781
2308.931,0.45033028
2309.703,0.45021093
2310.476,0.45008936
2311.25,0.45009412
2312.024,0.45016543
2312.798,0.45018753
2313.573,0.45022625
2314.348,0.45041707
2315.124,0.45070336
2315.901,0.45092335
2316.678,0.45108108
2317.455,0.4512923
2318.234,0.45153121
2319.012,0.45169931
2319.791,0.45185285
2320.571,0.45209487
2321.351,0.45233636
2322.131,0.45246641
2322.913,0.45263689
2323.694,0.45306257
2324.476,0.45367866
2325.259,0.45429282
2326.042,0.45489887
2326.826,0.45552387
2327.61,0.45599531
2328.395,0.45620068
2329.18,0.45634584
2329.966,0.45663795
2330.753,0.45696642
2331.54,0.45718117
2332.327,0.45739776
2333.115,0.45777401
2333.903,0.45824532
2334.692,0.45869581
2335.482,0.45913411
2336.272,0.45955593
2337.062,0.45987353
2337.854,0.46010538
2338.645,0.46042664
2339.437,0.46092498
2340.23,0.46146881
2341.023,0.46190273
2341.817,0.46223295
2342.611,0.46252968
2343.406,0.46276394
2344.201,0.46287937
2344.997,0.4629523
2345.794,0.4631057
2346.591,0.46330874
2347.388,0.46347775
2348.186,0.46372509
2348.985,0.46421076
2349.784,0.46479576
2350.583,0.46519527
2351.384,0.46540329
2352.184,0.46560366
2352.986,0.46579506
2353.787,0.46593075
2354.59,0.46618747
2355.393,0.46665099
2356.196,0.46702045
2357.0,0.46707501
2357.804,0.46706419
2358.609,0.46722635
2359.415,0.46738736
2360.221,0.46741649
2361.028,0.4675299
2361.835,0.46780271
2362.643,0.46795875
2363.451,0.46791105
2364.26,0.46791496
2365.069,0.46804187
2365.879,0.46809471
2366.69,0.4681079
2367.501,0.46831954
2368.312,0.46865725
2369.125,0.46882022
2369.937,0.46879839
2370.751,0.46880735
2371.564,0.46886871
2372.379,0.46888185
2373.194,0.46892313
2374.009,0.46910684
2374.825,0.4693401
2375.642,0.46949945
2376.459,0.46963977
2377.276,0.46982264
2378.095,0.46994968
2378.913,0.46993185
2379.733,0.46984496
2380.553,0.46980396
2381.373,0.46982353
2382.194,0.46988319
2383.016,0.4700183
2383.838,0.47024896
2384.661,0.47047577
2385.484,0.47056439
2386.308,0.4705347
2387.132,0.47055382
2387.957,0.47069872
2388.783,0.47086026
2389.609,0.47094656
2390.435,0.47102401
2391.263,0.47117075
2392.09,0.47135244
2392.919,0.47153363
2393.748,0.47175175
2394.577,0.47200552
2395.407,0.47222603
2396.238,0.47240628
2397.069,0.47260318
2397.901,0.47278254
2398.733,0.4728638
2399.566,0.47291437
2400.399,0.47308958
2401.233,0.4733689
2402.068,0.47358437
2402.903,0.47370387
2403.739,0.47386618
2404.575,0.47412336
2405.412,0.47437993
2406.25,0.47460111
2407.088,0.47485356
2407.926,0.47511407
2408.766,0.47526202
2409.606,0.47530035
2410.446,0.47537281
2411.287,0.47554535
2412.128,0.47577166
2412.971,0.47605144
2413.813,0.47640686
2414.657,0.47673584
2415.5,0.4769269
2416.345,0.47706699
2417.19,0.47730668
2418.036,0.47758207
2418.882,0.47770465
2419.729,0.47764578
2420.576,0.47751936
2421.424,0.47739129
2422.272,0.47730299
2423.122,0.47734987
2423.971,0.47755566
2424.822,0.4777899
2425.673,0.47794648
2426.524,0.47807699
2427.376,0.47823541
2428.229,0.4783519
2429.082,0.47836926
2429.936,0.47835955
2430.791,0.47840581
2431.646,0.47848159
2432.501,0.47853674
2433.358,0.47860442
2434.214,0.47872713
2435.072,0.4788533
2435.93,0.47891079
2436.789,0.47892056
2437.648,0.47894652
2438.508,0.47898703
2439.368,0.47903486
2440.229,0.47915389
2441.091,0.47936924
2441.953,0.47957438
2442.816,0.47968192
2443.679,0.47975319
2444.543,0.47985387
2445.408,0.47994539
2446.273,0.48003186
2447.139,0.48020839
2448.006,0.48046644
2448.873,0.48066684
2449.74,0.48075806
2450.609,0.48079937
2451.478,0.48078768
2452.347,0.48071391
2453.217,0.48069717
2454.088,0.48082929
2454.959,0.48103033
2455.831,0.48125096
2456.704,0.48156385
2457.577,0.48191107
2458.451,0.48207708
2459.325,0.48202451
2460.2,0.48190955
2461.076,0.48177921
2461.952,0.4816198
2462.829,0.48158401
2463.707,0.48177469
2464.585,0.48199522
2465.464,0.48205465
2466.343,0.48203945
2467.223,0.48204122
2468.104,0.48199783
2468.985,0.48197231
2469.867,0.48213366
2470.749,0.48239735
2471.632,0.48254326
2472.516,0.4826206
2473.4,0.48276573
2474.285,0.482851
2475.171,0.48277736
2476.057,0.48277389
2476.944,0.48298115
2477.832,0.48315219
2478.72,0.48310418
2479.608,0.48300198
2480.498,0.48298372
2481.388,0.48299447
2482.278,0.4830764
2483.17,0.4833069
2484.062,0.48350484
2484.954,0.48348705
2485.847,0.48344233
2486.741,0.48362013
2487.636,0.48393354
2488.531,0.48420134
2489.427,0.48442369
2490.323,0.4845615
2491.22,0.48447354
2492.118,0.48424343
2493.016,0.48413785
2493.915,0.48419726
2494.814,0.4842718
2495.715,0.48436729
2496.615,0.4845455
2497.517,0.48467937
2498.419,0.48467847
2499.322,0.48470366
2500.225,0.48485769
2501.129,0.48499397
2502.034,0.48503976
2502.939,0.48512752
2503.845,0.48524408
2504.752,0.4852092
2505.659,0.48507694
2506.567,0.48509072
2507.476,0.48522076
2508.385,0.48525253
2509.295,0.48524631
2510.206,0.48539935
2511.117,0.48559534
2512.029,0.48562568
2512.942,0.48564479
2513.855,0.48587414
2514.769,0.48614472
2515.683,0.48627855
2516.598,0.48648705
2517.514,0.48687631
2518.431,0.48708839
2519.348,0.48697182
2520.266,0.48693869
2521.184,0.48718114
2522.103,0.48728416
2523.023,0.48706193
2523.944,0.48690242
2524.865,0.48691437
2525.787,0.48675584
2526.709,0.48656399
2527.632,0.48685715
2528.556,0.48741727
2529.48,0.48749608
2530.406,0.48714306
2531.331,0.48703884
2532.258,0.48718684
2533.185,0.48711583
2534.113,0.48703455
2535.041,0.48733032
2535.971,0.48756998
2536.9,0.48733092
2537.831,0.48720712
2538.762,0.48766154
2539.694,0.48803375
2540.627,0.48773705
2541.56,0.4873314
2542.494,0.4873864
2543.428,0.48749385
2544.364,0.48741563
2545.3,0.48770646
2546.236,0.48837557
2547.174,0.48857945
2548.112,0.48826143
2549.05,0.4883987
2549.99,0.48910431
2550.93,0.48933338
2551.87,0.4888813
2552.812,0.48874571
2553.754,0.48910607
2554.697,0.48911774
2555.64,0.48883018
2556.585,0.48906258
2557.529,0.48960895
2558.475,0.48948323
2559.421,0.4889009
2560.368,0.48892899
2561.316,0.48924966
2562.264,0.48866719
2563.213,0.48791466
2564.163,0.48839284
2565.113,0.48940688
2566.065,0.48970589
2567.016,0.48983746
2567.969,0.49053961
2568.922,0.49088276
2569.876,0.49016641
2570.831,0.48982564
2571.786,0.49062559
2572.742,0.49097535
2573.699,0.49006046
2574.656,0.48961148
2575.615,0.49023754
2576.573,0.49025628
2577.533,0.4895033
2578.493,0.48982384
2579.454,0.49109737
2580.416,0.49134593
2581.378,0.49067605
2582.342,0.49093226
2583.305,0.49166139
2584.27,0.49109629
2585.235,0.49042623
2586.201,0.49129657
2587.168,0.49221307
2588.135,0.49147251
2589.103,0.49081684
2590.072,0.49178151
2591.042,0.49307012
2592.012,0.49367619
2592.983,0.49480835
2593.955,0.49627128
2594.927,0.49517468
2595.9,0.49226123
2596.874,0.49145322
2597.849,0.49250646
2598.824,0.49300147
2599.8,0.49282195
2600.777,0.49329829
2601.755,0.49402697
2602.733,0.49372038
2603.712,0.49318944
2604.692,0.49361806
2605.672,0.49383657
2606.653,0.49292515
2607.635,0.49239528
2608.618,0.49292841
2609.601,0.49315821
2610.585,0.49262231
2611.57,0.49254408
2612.556,0.49325512
2613.542,0.49375659
2614.529,0.49378918
2615.517,0.49396884
2616.505,0.49417121
2617.495,0.49390251
2618.485,0.49364204
2619.475,0.49383994
2620.467,0.49384925
2621.459,0.49338493
2622.452,0.49321265
2623.446,0.49370269
2624.44,0.49426442
2625.435,0.49444994
2626.431,0.49453146
2627.428,0.49482325
2628.426,0.49515942
2629.424,0.49527631
2630.423,0.49511317
2631.423,0.49474383
2632.423,0.4943857
2633.424,0.49425529
2634.426,0.49438492
2635.429,0.49463464
2636.432,0.49486267
2637.437,0.49498952
2638.442,0.49500582
2639.447,0.49492991
2640.454,0.49475956
2641.461,0.49457177
2642.469,0.49456482
2643.478,0.49479002
2644.488,0.49496287
2645.498,0.49487872
2646.509,0.49474754
2647.521,0.4948123
2648.534,0.49502797
2649.547,0.49534489
2650.561,0.49574574
2651.576,0.49595806
2652.592,0.49575121
2653.609,0.49543082
2654.626,0.49534076
2655.644,0.49529705
2656.663,0.49517363
2657.682,0.49521212
2658.703,0.49532395
2659.724,0.49505189
2660.746,0.49464005
2661.768,0.49489873
2662.792,0.49578293
2663.816,0.49643165
2664.841,0.49650119
2665.867,0.49634107
2666.894,0.49608587
2667.921,0.49582181
2668.949,0.49593797
2669.978,0.49598459
2671.008,0.49483496
2672.038,0.49297207
2673.07,0.49210853
2674.102,0.492441
2675.135,0.49271285
2676.168,0.49214897
2677.203,0.4910574
2678.238,0.48955107
2679.274,0.4875303
2680.311,0.4856583
2681.349,0.48430415
2682.387,0.48266268
2683.426,0.47998137
2684.467,0.4767019
2685.507,0.47340403
2686.549,0.46981334
2687.591,0.46587168
2688.635,0.46233085
2689.679,0.45954386
2690.724,0.45711115
2691.769,0.45484529
2692.816,0.45285094
2693.863,0.45065267
2694.911,0.44761986
2695.96,0.44431041
2697.01,0.44169922
2698.06,0.43971527
2699.112,0.43779809
2700.164,0.43574295
2701.217,0.43341346
2702.27,0.43051227
2703.325,0.42720144
2704.38,0.42409237
2705.437,0.42138353
2706.494,0.41886362
2707.552,0.41656107
2708.61,0.4144042
2709.67,0.41126979
2710.73,0.40577694
2711.791,0.39839935
2712.853,0.39076142
2713.916,0.38291343
2714.98,0.37358243
2716.044,0.36219516
2717.109,0.34965533
2718.175,0.33770637
2719.242,0.32823816
2720.31,0.32267499
2721.379,0.32080621
2722.448,0.32049021
2723.518,0.31946763
2724.589,0.31669722
2725.661,0.31193607
2726.734,0.30532624
2727.808,0.29758338
2728.882,0.28979189
2729.958,0.28300835
2731.034,0.27815925
2732.111,0.27584168
2733.188,0.27563691
2734.267,0.2758673
2735.347,0.2749803
2736.427,0.2733146
2737.508,0.27227404
2738.59,0.27221315
2739.673,0.27194958
2740.757,0.27010825
2741.841,0.26659798
2742.927,0.26259195
2744.013,0.259399
2745.1,0.25777009
2746.188,0.25745116
2747.277,0.257424
2748.367,0.25709
2749.457,0.25677687
2750.549,0.25679407
2751.641,0.25694965
2752.734,0.2571468
2753.828,0.25737234
2754.923,0.25698729
2756.019,0.2553957
2757.115,0.25356711
2758.213,0.2526924
2759.311,0.25246016
2760.41,0.25210403
2761.51,0.25157392
2762.611,0.25107374
2763.713,0.25041016
2764.816,0.24957432
2765.919,0.24912673
2767.024,0.24918978
2768.129,0.24922983
2769.235,0.24905135
2770.342,0.2490506
2771.45,0.24924171
2772.559,0.24919741
2773.669,0.2489984
2774.779,0.24904648
2775.891,0.24917359
2777.003,0.24893317
2778.116,0.24842756
2779.23,0.24804379
2780.345,0.24771114
2781.461,0.24723857
2782.578,0.24692486
2783.696,0.24702668
2784.814,0.24716546
2785.934,0.24687988
2787.054,0.24634198
2788.175,0.24603296
2789.297,0.24601779
2790.42,0.2460651
2791.544,0.24610756
2792.669,0.24610564
2793.795,0.24592305
2794.922,0.24557522
2796.049,0.24531024
2797.178,0.24524888
2798.307,0.24522351
2799.437,0.24504977
2800.568,0.24468294
2801.7,0.24404897
2802.833,0.24309567
2803.967,0.24218292
2805.102,0.24194777
2806.238,0.24245946
2807.374,0.24313989
2808.512,0.2435454
2809.65,0.24372691
2810.789,0.24385695
2811.93,0.24391545
2813.071,0.24387852
2814.213,0.24389071
2815.356,0.24404353
2816.5,0.24422466
2817.645,0.24430741
2818.791,0.24428212
2819.937,0.24416774
2821.085,0.24404525
2822.233,0.24411742
2823.383,0.24449362
2824.533,0.24501256
2825.685,0.24544076
2826.837,0.24568403
2827.99,0.24573891
2829.144,0.24563545
2830.299,0.24548699
2831.455,0.24540274
2832.612,0.2453389
2833.77,0.24516894
2834.929,0.2448539
2836.089,0.24443542
2837.25,0.24399803
2838.411,0.24370704
2839.574,0.24367744
2840.737,0.24376993
2841.902,0.24378086
2843.067,0.24375655
2844.234,0.24383492
2845.401,0.24392637
2846.569,0.2438774
2847.739,0.24377314
2848.909,0.24375124
2850.08,0.24375039
2851.252,0.24370771
2852.425,0.24370172
2853.599,0.2436912
2854.774,0.24350984
2855.95,0.24326931
2857.127,0.24330955
2858.305,0.24364121
2859.484,0.24394194
2860.664,0.24409816
2861.844,0.2442558
2863.026,0.2443862
2864.209,0.24430533
2865.392,0.24405034
2866.577,0.24378818
2867.763,0.24347596
2868.949,0.24301904
2870.137,0.24259606
2871.325,0.24244786
2872.515,0.24251511
2873.705,0.2425833
2874.897,0.2425995
2876.089,0.24258014
2877.283,0.24244964
2878.477,0.2422202
2879.673,0.24210403
2880.869,0.24219537
2882.066,0.24226585
2883.265,0.24208956
2884.464,0.24178618
2885.664,0.24163223
2886.866,0.24170284
2888.068,0.24188724
2889.271,0.24208147
2890.476,0.24216446
2891.681,0.24195913
2892.887,0.24145288
2894.095,0.24091993
2895.303,0.24060089
2896.512,0.24041253
2897.723,0.24017181
2898.934,0.23989769
2900.146,0.23967647
2901.36,0.23945274
2902.574,0.23918211
2903.789,0.23898675
2905.006,0.23894116
2906.223,0.23894348
2907.441,0.23896091
2908.661,0.23912341
2909.881,0.23942511
2911.103,0.23963204
2912.325,0.23964086
2913.549,0.23965572
2914.773,0.23987245
2915.999,0.24022758
2917.225,0.24054199
2918.453,0.24069419
2919.681,0.24060376
2920.911,0.24028525
2922.142,0.23993712
2923.373,0.23975908
2924.606,0.2396962
2925.84,0.23957155
2927.075,0.23939256
2928.31,0.23931143
2929.547,0.23934777
2930.785,0.23939057
2932.024,0.23942118
2933.264,0.23953636
2934.505,0.239772
2935.747,0.24007395
2936.99,0.24039125
2938.234,0.24067277
2939.479,0.24082874
2940.726,0.24083807
2941.973,0.24084793
2943.221,0.24106228
2944.471,0.24157673
2945.721,0.24234832
2946.973,0.24320467
2948.225,0.24385317
2949.479,0.24407683
2950.733,0.24400579
2951.989,0.24403427
2953.246,0.2443926
2954.504,0.24493242
2955.763,0.24535218
2957.023,0.24548298
2958.284,0.24535788
2959.546,0.24517945
2960.809,0.24520354
2962.073,0.24550912
2963.339,0.24593635
2964.605,0.24633658
2965.873,0.24674032
2967.141,0.24718221
2968.411,0.24757752
2969.681,0.24791057
2970.953,0.24834009
2972.226,0.24899942
2973.5,0.24985828
2974.775,0.250811
2976.051,0.25169464
2977.328,0.25225222
2978.607,0.25235733
2979.886,0.25226111
2981.167,0.2523627
2982.448,0.25276864
2983.731,0.25329025
2985.015,0.25377342
2986.3,0.25420786
2987.586,0.25462681
2988.873,0.25511705
2990.161,0.25578466
2991.45,0.25652409
2992.74,0.2570111
2994.032,0.25711008
2995.324,0.25710767
2996.618,0.2573628
2997.913,0.25791847
2999.209,0.25862337
3000.506,0.25939887
3001.804,0.2601681
3003.103,0.26074045
3004.404,0.2610161
3005.705,0.26114754
3007.008,0.261324
3008.312,0.26157107
3009.616,0.26191294
3010.922,0.2624817
3012.23,0.26327937
3013.538,0.2640602
3014.847,0.26462643
3016.158,0.26501389
3017.469,0.26527763
3018.782,0.26539734
3020.096,0.26550459
3021.411,0.26586034
3022.727,0.26647871
3024.044,0.26711226
3025.363,0.26769378
3026.683,0.26844791
3028.003,0.26950696
3029.325,0.2707559
3030.648,0.27204007
3031.972,0.27317269
3033.298,0.27381871
3034.624,0.27377319
3035.952,0.27333285
3037.281,0.27304868
3038.611,0.27317674
3039.942,0.27364068
3041.274,0.27436613
3042.607,0.27530135
3043.942,0.27623242
3045.278,0.27689182
3046.615,0.27720486
3047.953,0.27727034
3049.292,0.27721446
3050.632,0.27718094
3051.974,0.27732316
3053.317,0.27767636
3054.661,0.27811982
3056.006,0.27854133
3057.352,0.27896044
3058.7,0.27944782
3060.048,0.28001779
3061.398,0.28066143
3062.749,0.28139998
3064.101,0.28219733
3065.455,0.28285675
3066.809,0.28315372
3068.165,0.2831124
3069.522,0.28301638
3070.88,0.2830968
3072.239,0.2833513
3073.6,0.28371433
3074.962,0.28419246
3076.325,0.28475235
3077.689,0.2852874
3079.054,0.28577031
3080.421,0.28624776
3081.788,0.28667337
3083.157,0.28699577
3084.527,0.28737588
3085.899,0.28800641
3087.271,0.28875478
3088.645,0.28929778
3090.02,0.28956825
3091.396,0.28976678
3092.774,0.29000569
3094.153,0.29026531
3095.532,0.29061886
3096.914,0.29118604
3098.296,0.29191431
3099.679,0.29262595
3101.064,0.29319022
3102.45,0.29350461
3103.837,0.29349838
3105.226,0.29332209
3106.616,0.29333583
3108.007,0.29373234
3109.399,0.29434484
3110.792,0.2949399
3112.187,0.29549175
3113.583,0.29605756
3114.98,0.29659278
3116.378,0.29703742
3117.778,0.29743887
3119.179,0.29787563
3120.581,0.29835507
3121.985,0.2988663
3123.389,0.29943077
3124.795,0.30004251
3126.202,0.30064001
3127.611,0.30118216
3129.02,0.30169595
3130.431,0.30221459
3131.844,0.30271947
3133.257,0.30319892
3134.672,0.30371295
3136.088,0.30432694
3137.505,0.30501295
3138.924,0.3056913
3140.344,0.30635502
3141.765,0.30705619
3143.187,0.30778288
3144.611,0.30846912
3146.036,0.30912533
3147.462,0.30982107
3148.89,0.31053226
3150.319,0.31116949
3151.749,0.31174992
3153.18,0.3123704
3154.613,0.31302439
3156.047,0.31363445
3157.482,0.31422137
3158.919,0.3148481
3160.357,0.3154563
3161.796,0.31597131
3163.236,0.31648888
3164.678,0.3171356
3166.121,0.3178423
3167.566,0.3184747
3169.011,0.31906311
3170.458,0.31969125
3171.907,0.32030869
3173.356,0.3208721
3174.807,0.32151886
3176.26,0.32240823
3177.713,0.32350857
3179.168,0.32465176
3180.624,0.32563384
3182.082,0.32621712
3183.541,0.32628729
3185.001,0.32608423
3186.463,0.32604475
3187.926,0.32637566
3189.39,0.32698396
3190.856,0.32777017
3192.323,0.32869988
3193.791,0.32961318
3195.26,0.33026771
3196.731,0.33061131
3198.204,0.33081716
3199.677,0.33106
3201.152,0.33141152
3202.629,0.3318881
3204.106,0.33243837
3205.585,0.33294259
3207.066,0.3333639
3208.548,0.33385525
3210.031,0.3346135
3211.515,0.33568584
3213.001,0.3369669
3214.488,0.33827548
3215.977,0.33935774
3217.467,0.33995091
3218.958,0.3399839
3220.451,0.339691
3221.945,0.33944575
3223.441,0.33949832
3224.938,0.33985309
3226.436,0.34031246
3227.936,0.34063962
3229.437,0.3407971
3230.939,0.34101632
3232.443,0.34153325
3233.948,0.34227194
3235.455,0.34291819
3236.963,0.34326289
3238.472,0.34336853
3239.983,0.34345959
3241.495,0.34377928
3243.008,0.34445829
3244.523,0.34538842
3246.04,0.34630262
3247.558,0.3470728
3249.077,0.34780731
3250.598,0.34861285
3252.12,0.34945036
3253.643,0.35027402
3255.168,0.35106978
3256.694,0.3517007
3258.222,0.35195637
3259.751,0.35182588
3261.282,0.35152925
3262.814,0.3513017
3264.347,0.35132497
3265.882,0.35175274
3267.418,0.35254035
3268.956,0.35334633
3270.495,0.35382838
3272.036,0.35396243
3273.578,0.35393445
3275.122,0.35390077
3276.667,0.353989
3278.213,0.35431844
3279.761,0.35486108
3281.31,0.35546057
3282.861,0.35605673
3284.413,0.35669602
3285.967,0.35731357
3287.522,0.35776461
3289.079,0.35809033
3290.637,0.35852249
3292.196,0.35919962
3293.757,0.36003547
3295.32,0.36082709
3296.884,0.3613473
3298.449,0.36144445
3300.016,0.36123288
3301.585,0.36109639
3303.155,0.36133767
3304.726,0.36187509
3306.299,0.3623833
3307.873,0.36265016
3309.449,0.36272918
3311.026,0.36282465
3312.605,0.36310234
3314.185,0.3635806
3315.767,0.36415141
3317.351,0.36469734
3318.936,0.3651845
3320.522,0.36566916
3322.11,0.36625986
3323.699,0.36704962
3325.29,0.36802879
3326.882,0.3690479
3328.476,0.36988499
3330.072,0.37034044
3331.669,0.37032863
3333.267,0.36997503
3334.867,0.36958957
3336.469,0.36942825
3338.072,0.36949604
3339.676,0.3696704
3341.282,0.36993274
3342.89,0.37032004
3344.499,0.37077214
3346.11,0.37121555
3347.722,0.37169602
3349.336,0.37222762
3350.952,0.37263335
3352.569,0.37272798
3354.187,0.37255278
3355.807,0.3722796
3357.429,0.37205069
3359.052,0.37202976
3360.677,0.37238056
3362.303,0.37303343
3363.931,0.3736833
3365.56,0.37413181
3367.191,0.37442659
3368.824,0.37462497
3370.458,0.37468988
3372.093,0.37465925
3373.731,0.37464469
3375.37,0.37464956
3377.01,0.37463048
3378.652,0.37468711
3380.296,0.37493532
3381.941,0.37529012
3383.588,0.37562184
3385.236,0.37598382
3386.886,0.37644632
3388.538,0.37688391
3390.191,0.37716839
3391.846,0.37740269
3393.502,0.3777535
3395.16,0.37820935
3396.82,0.3786656
3398.481,0.37909415
3400.144,0.37951434
3401.809,0.37992258
3403.475,0.38032502
3405.143,0.38069228
3406.812,0.38088172
3408.483,0.38076055
3410.156,0.38043496
3411.83,0.38019261
3413.506,0.38021166
3415.183,0.3804401
3416.862,0.38076927
3418.543,0.38119389
3420.226,0.38177228
3421.91,0.38249208
3423.596,0.38322079
3425.283,0.38378012
3426.972,0.38409627
3428.663,0.38428484
3430.355,0.38456425
3432.049,0.38506842
3433.745,0.3857767
3435.442,0.38660775
3437.141,0.38752792
3438.842,0.3885308
3440.545,0.38953842
3442.249,0.390364
3443.954,0.39081044
3445.662,0.39082361
3447.371,0.3905654
3449.082,0.39031057
3450.794,0.39024212
3452.509,0.39034913
3454.224,0.39052557
3455.942,0.39070696
3457.661,0.39089852
3459.382,0.3911316
3461.105,0.39142594
3462.829,0.39174024
3464.556,0.39195528
3466.283,0.39199209
3468.013,0.39193083
3469.744,0.39191092
3471.477,0.39196071
3473.212,0.39203901
3474.948,0.39216996
3476.686,0.39238266
3478.426,0.39260405
3480.168,0.3927734
3481.911,0.39296851
3483.656,0.39329819
3485.403,0.39379817
3487.152,0.39450247
3488.902,0.39539449
3490.654,0.3962162
3492.408,0.3965964
3494.164,0.39647833
3495.921,0.39617469
3497.68,0.39596764
3499.441,0.39591738
3501.204,0.39604143
3502.968,0.39636689
3504.734,0.39679897
3506.502,0.39720374
3508.272,0.39758653
3510.043,0.39798767
3511.817,0.3983322
3513.592,0.3985801
3515.368,0.39884818
3517.147,0.39921361
3518.927,0.39958961
3520.71,0.39991144
3522.494,0.40021637
3524.28,0.40048494
3526.067,0.40066449
3527.857,0.40089798
3529.648,0.40144514
3531.441,0.40232099
3533.236,0.40322912
3535.032,0.4038697
3536.831,0.40414196
3538.631,0.40410765
3540.433,0.40394158
3542.237,0.40385201
3544.043,0.40390773
3545.851,0.40400833
3547.66,0.40408974
3549.471,0.40423032
3551.284,0.40448713
3553.099,0.40478473
3554.916,0.40502845
3556.735,0.40521444
3558.555,0.40537233
3560.378,0.40552112
3562.202,0.40570326
3564.028,0.40596774
3565.856,0.40630708
3567.686,0.40667899
3569.518,0.40704549
3571.351,0.40734301
3573.187,0.40749516
3575.024,0.40752239
3576.863,0.40756822
3578.704,0.40775924
3580.547,0.40810047
3582.392,0.40853035
3584.239,0.40896746
3586.088,0.40930205
3587.938,0.40945776
3589.791,0.40950693
3591.645,0.4096143
3593.501,0.40985263
3595.359,0.41013944
3597.22,0.41033971
3599.082,0.41036436
3600.946,0.41021701
3602.811,0.41001347
3604.679,0.40990921
3606.549,0.40995922
3608.421,0.41011559
3610.294,0.41036546
3612.17,0.41075747
3614.047,0.41126157
3615.926,0.41172601
3617.808,0.41200955
3619.691,0.41209518
3621.576,0.41206553
3623.463,0.41203561
3625.353,0.41208584
3627.244,0.41222037
3629.137,0.41239133
3631.032,0.41255995
3632.929,0.41269438
3634.828,0.41275972
3636.729,0.41276315
3638.632,0.41276342
3640.537,0.41279517
3642.444,0.41285596
3644.353,0.41298344
3646.263,0.41324084
3648.176,0.41360402
3650.091,0.41396804
3652.008,0.41423929
3653.927,0.41435026
3655.848,0.41427616
3657.771,0.41413298
3659.696,0.41412836
3661.623,0.4143208
3663.552,0.4145709
3665.483,0.41478135
3667.416,0.41498369
3669.351,0.41517876
3671.288,0.41532274
3673.227,0.41548985
3675.168,0.41580851
3677.111,0.41625257
3679.057,0.41669203
3681.004,0.41707196
3682.953,0.41735034
3684.905,0.41740166
3686.858,0.41718858
3688.814,0.41689167
3690.771,0.41669433
3692.731,0.41660564
3694.693,0.41660673
3696.656,0.41676075
3698.622,0.41705234
3700.59,0.41732796
3702.56,0.41749399
3704.532,0.41760702
3706.507,0.4177056
3708.483,0.41773989
3710.461,0.41771707
3712.442,0.41774533
3714.425,0.41787829
3716.409,0.41805966
3718.396,0.41825482
3720.385,0.41849427
3722.376,0.41875699
3724.37,0.41897223
3726.365,0.41917527
3728.362,0.41949107
3730.362,0.41990868
3732.364,0.42026171
3734.368,0.42048599
3736.374,0.42070911
3738.382,0.42101894
3740.392,0.42137593
3742.405,0.42177971
3744.419,0.42226105
3746.436,0.42269532
3748.455,0.42291532
3750.476,0.4229891
3752.499,0.42309141
3754.525,0.42318433
3756.553,0.42317344
3758.582,0.42320743
3760.614,0.42346438
3762.649,0.42381443
3764.685,0.42404654
3766.724,0.42418731
3768.764,0.42430955
3770.807,0.42433266
3772.853,0.42426793
3774.9,0.42429967
3776.95,0.42444154
3779.001,0.42449442
3781.056,0.42444693
3783.112,0.42448834
3785.17,0.42461757
3787.231,0.42467184
3789.294,0.42468089
3791.359,0.42477305
3793.427,0.42487345
3795.496,0.42487579
3797.568,0.4249145
3799.643,0.42512151
3801.719,0.42537167
3803.798,0.42553647
3805.879,0.42570164
3807.962,0.42592308
3810.048,0.42608701
3812.135,0.42615618
3814.225,0.42625186
3816.318,0.42640975
3818.412,0.42653587
3820.509,0.42661896
3822.609,0.42673191
3824.71,0.42686073
3826.814,0.42695306
3828.92,0.42706656
3831.029,0.42727183
3833.139,0.42750548
3835.252,0.42767219
3837.368,0.4277984
3839.486,0.42797439
3841.606,0.42822226
3843.728,0.42849668
3845.853,0.42876181
3847.98,0.42901627
3850.109,0.42927489
3852.241,0.42955351
3854.375,0.42986258
3856.512,0.43019192
3858.65,0.43048895
3860.792,0.43068751
3862.935,0.43079176
3865.081,0.43089229
3867.229,0.43105268
3869.38,0.43124389
3871.533,0.43143202
3873.689,0.43165294
3875.846,0.43192222
3878.007,0.43218781
3880.169,0.43243251
3882.334,0.43270887
3884.502,0.43300171
3886.672,0.4332167
3888.844,0.43334352
3891.019,0.43348825
3893.196,0.43368949
3895.375,0.43387093
3897.557,0.4340047
3899.742,0.43414953
3901.929,0.43429278
3904.118,0.43434956
3906.31,0.43434575
3908.504,0.43441312
3910.7,0.43458372
3912.9,0.43477444
3915.101,0.4349649
3917.305,0.43520766
3919.512,0.43547751
3921.721,0.43571341
3923.932,0.43596685
3926.146,0.43630466
3928.363,0.43663493
3930.581,0.4368477
3932.803,0.43702307
3935.027,0.43727866
3937.253,0.4375396
3939.482,0.43770198
3941.714,0.43785258
3943.948,0.43809822
3946.184,0.43835824
3948.423,0.4385434
3950.665,0.4387401
3952.909,0.43902889
3955.156,0.43933683
3957.405,0.43962607
3959.657,0.43998782
3961.911,0.44043697
3964.168,0.44084676
3966.427,0.44116745
3968.689,0.44147886
3970.954,0.44181038
3973.221,0.44212189
3975.491,0.44244372
3977.763,0.44283173
3980.038,0.44324331
3982.315,0.44361571
3984.595,0.44398646
3986.878,0.44440439
3989.163,0.44482219
3991.451,0.44517525
3993.742,0.44547948
3996.035,0.44579406
3998.33,0.44615966
4000.629,0.44658261
4002.93,0.44702214
4005.233,0.44742628
4007.54,0.4477948
4009.849,0.44815673
4012.16,0.44850451
4014.475,0.44882764
4016.791,0.4491581
4019.111,0.44949848
4021.433,0.44979193
4023.758,0.45002129
4026.086,0.45023692
4028.416,0.45045169
4030.749,0.45064859
4033.085,0.45088866
4035.423,0.4512395
4037.764,0.45162148
4040.108,0.45191702
4042.454,0.45218275
4044.804,0.45255964
4047.155,0.45303215
4049.51,0.45348572
4051.867,0.45391233
4054.228,0.4543717
4056.59,0.45482458
4058.956,0.45520414
4061.324,0.45556768
4063.695,0.4560028
4066.069,0.4564552
4068.446,0.45682638
4070.825,0.45716429
4073.207,0.45758152
4075.592,0.4580587
4077.98,0.45852726
4080.371,0.45904945
4082.764,0.4597087
4085.16,0.46040554
4087.559,0.46100148
4089.961,0.46156614
4092.365,0.46222652
4094.773,0.46290166
4097.183,0.46346602
4099.596,0.46400582
4102.012,0.46461274
4104.43,0.46515691
4106.852,0.4655696
4109.276,0.46606332
4111.703,0.46676693
4114.133,0.46748198
4116.566,0.46807049
4119.002,0.46869088
4121.441,0.46941528
4123.882,0.47006946
4126.327,0.47062942
4128.774,0.47128418
4131.224,0.47201438
4133.677,0.47261647
4136.133,0.47314915
4138.592,0.47383502
4141.054,0.47460032
4143.519,0.4752159
4145.987,0.47574092
4148.457,0.47636955
4150.931,0.47707268
4153.407,0.47776739
4155.887,0.47854222
4158.369,0.47941896
4160.854,0.48021549
4163.343,0.4808536
4165.834,0.48145805
4168.328,0.48207928
4170.826,0.48265929
4173.326,0.48325409
4175.829,0.4839677
4178.335,0.4847648
4180.844,0.48558546
4183.356,0.48646718
4185.872,0.48740633
4188.39,0.48835381
4190.911,0.48942831
4193.435,0.49087124
4195.963,0.49283398
4198.493,0.49544655
4201.026,0.49891335
4203.563,0.50327963
4206.102,0.50832598
4208.645,0.51392381
4211.19,0.52012525
4213.739,0.52670877
4216.291,0.53314253
4218.846,0.5391961
4221.404,0.54497589
4223.965,0.55033013
4226.529,0.55502019
4229.096,0.55931732
4231.666,0.56339913
4234.24,0.5666017
4236.816,0.56830438
4239.396,0.56888236
4241.979,0.56869012
4244.565,0.56705537
4247.154,0.56313219
4249.746,0.55706523
4252.341,0.55005729
4254.94,0.54408555
4257.542,0.54131728
4260.146,0.54298061
4262.754,0.54846867
4265.366,0.55552751
4267.98,0.56163955
4270.598,0.56549907
4273.219,0.56719939
4275.843,0.56759764
4278.47,0.56774858
4281.1,0.56825177
4283.734,0.56899011
4286.371,0.56970441
4289.011,0.57039929
4291.655,0.57090111
4294.301,0.57076548
4296.951,0.57000115
4299.604,0.56924572
4302.261,0.56888146
4304.92,0.56858213
4307.583,0.56789774
4310.25,0.56675908
4312.919,0.56527504
4315.592,0.56360106
4318.268,0.56207613
4320.948,0.56101462
4323.631,0.5603106
4326.317,0.55961055
4329.006,0.55880373
4331.699,0.55799072
4334.395,0.55712445
4337.095,0.55611122
4339.797,0.55514827
4342.504,0.55456993
4345.213,0.55446045
4347.926,0.55471744
4350.642,0.55526246
4353.362,0.55590907
4356.085,0.55634365
4358.811,0.55654086
4361.541,0.55686786
4364.275,0.55755924
4367.011,0.55847031
4369.751,0.55947548
4372.495,0.56059111
4375.242,0.56165849
4377.992,0.56249355
4380.746,0.56333971
4383.504,0.5645706
4386.264,0.56607395
4389.029,0.56751913
4391.796,0.56895254
4394.567,0.57048926
4397.342,0.57185529
4400.12,0.57290494
4402.902,0.57404538
4405.687,0.5755421
4408.476,0.57704897
4411.268,0.5783405
4414.064,0.57970455
4416.863,0.58123372
4419.666,0.58261364
4422.472,0.58386214
4425.282,0.58530282
4428.096,0.58674119
4430.913,0.58771171
4433.734,0.58844413
4436.558,0.58950233
4439.386,0.59073752
4442.217,0.59163283
4445.052,0.59230673
4447.891,0.59315642
4450.733,0.59407162
4453.579,0.59486035
4456.428,0.5958123
4459.281,0.59707005
4462.138,0.59817242
4464.998,0.59886337
4467.863,0.59958746
4470.73,0.60067018
4473.602,0.6018176
4476.477,0.60276652
4479.355,0.60368308
4482.238,0.60464575
4485.124,0.60546299
4488.014,0.60612357
4490.908,0.60684459
4493.805,0.60763658
4496.706,0.60831198
4499.611,0.60890726
4502.519,0.60966808
4505.431,0.61064061
4508.347,0.61158663
4511.267,0.61234377
4514.191,0.61303242
4517.118,0.61384047
4520.049,0.61472628
4522.984,0.61554183
4525.923,0.61633316
4528.865,0.61722771
4531.812,0.61808401
4534.762,0.61866509
4537.716,0.61911229
4540.674,0.61974302
4543.635,0.62049056
4546.601,0.62109366
4549.57,0.62171038
4552.543,0.62266228
4555.521,0.62379788
4558.502,0.62477321
4561.487,0.62567936
4564.475,0.6266623
4567.468,0.62737444
4570.465,0.62760168
4573.465,0.62796494
4576.47,0.62901607
4579.478,0.63032731
4582.491,0.63137731
4585.507,0.63239789
4588.527,0.63356543
4591.551,0.63443738
4594.58,0.6349182
4597.612,0.63568393
4600.648,0.63697063
4603.688,0.63808861
4606.732,0.63865456
4609.781,0.63916049
4612.833,0.639882
4615.889,0.64049533
4618.949,0.6410504
4622.014,0.64206402
4625.082,0.64333103
4628.155,0.64406223
4631.231,0.64432452
4634.312,0.64497449
4637.397,0.64604935
4640.485,0.64684708
4643.578,0.64740416
4646.675,0.64826498
4649.777,0.64922334
4652.882,0.64967269
4655.991,0.64993141
4659.105,0.65077537
4662.223,0.65199324
4665.345,0.6529255
4668.471,0.6538464
4671.601,0.65530074
4674.735,0.65690109
4677.874,0.65807353
4681.017,0.6590418
4684.164,0.65990343
4687.315,0.66005759
4690.471,0.65957977
4693.63,0.65971748
4696.794,0.66105734
4699.962,0.66270422
4703.135,0.66391425
4706.312,0.66500548
4709.493,0.66613823
4712.678,0.66686585
4715.868,0.66726752
4719.062,0.66801396
4722.26,0.66914542
4725.463,0.67014254
4728.669,0.67104948
4731.881,0.67225058
4735.096,0.6735132
4738.316,0.67435835
4741.541,0.67494819
4744.769,0.67571234
4748.002,0.67667317
4751.24,0.67772715
4754.482,0.6789826
4757.728,0.68037771
4760.979,0.68158136
4764.234,0.68251478
4767.494,0.68345825
4770.758,0.68454193
4774.026,0.68563659
4777.299,0.68665412
4780.577,0.68761926
4783.859,0.68855603
4787.145,0.68950019
4790.436,0.69042986
4793.732,0.69122097
4797.032,0.69185324
4800.336,0.69251831
4803.645,0.69332836
4806.959,0.69418906
4810.277,0.6951222
4813.6,0.6962927
4816.927,0.69752598
4820.259,0.69833453
4823.596,0.6985775
4826.937,0.69857577
4830.283,0.69856266
4833.633,0.69861919
4836.988,0.69898633
4840.348,0.69980091
4843.712,0.70075389
4847.081,0.70159228
4850.455,0.70256538
4853.833,0.70383928
4857.216,0.70498782
4860.604,0.70562151
4863.996,0.7059846
4867.393,0.7064011
4870.795,0.7066866
4874.202,0.70668973
4877.613,0.70685074
4881.03,0.70759868
4884.451,0.70873235
4887.876,0.70993694
4891.307,0.7112793
4894.742,0.71272811
4898.182,0.71385928
4901.627,0.714566
4905.077,0.71539363
4908.532,0.71651374
4911.991,0.71726629
4915.456,0.71736903
4918.925,0.71753265
4922.399,0.71827706
4925.878,0.7192842
4929.362,0.7203152
4932.851,0.72151807
4936.345,0.72259492
4939.844,0.72302587
4943.347,0.72326399
4946.856,0.72426684
4950.37,0.72589028
4953.888,0.72711856
4957.412,0.72766893
4960.941,0.72803128
4964.474,0.72835176
4968.013,0.72857086
4971.556,0.72910639
4975.105,0.73020018
4978.659,0.73114722
4982.218,0.73134057
4985.782,0.73138495
4989.351,0.7320184
4992.925,0.7329211
4996.504,0.73359806
5000.088,0.73433131
5003.678,0.73539287
5007.272,0.73650709
5010.872,0.73766745
5014.477,0.73926647
5018.087,0.74099205
5021.703,0.74190255
5025.323,0.7418769
5028.949,0.74175541
5032.58,0.74197259
5036.216,0.74227326
5039.857,0.74263396
5043.504,0.74331034
5047.156,0.7441301
5050.813,0.74471625
5054.475,0.74517646
5058.143,0.74579705
5061.816,0.74641659
5065.495,0.74681693
5069.179,0.74730943
5072.868,0.74829969
5076.562,0.74962329
5080.262,0.7507861
5083.967,0.75154531
5087.678,0.75193714
5091.394,0.7520696
5095.115,0.7521687
5098.842,0.75253999
5102.574,0.75326129
5106.312,0.75408781
5110.055,0.75475361
5113.804,0.75523695
5117.558,0.75567898
5121.318,0.75616583
5125.083,0.75669128
5128.854,0.75734076
5132.63,0.75841052
5136.412,0.76013998
5140.199,0.7622922
5143.992,0.76417979
5147.791,0.76517759
5151.595,0.76512764
5155.405,0.76437429
5159.22,0.76362325
5163.041,0.76357456
5166.868,0.76433761
5170.7,0.76535385
5174.538,0.76615197
5178.382,0.76687777
5182.231,0.76784525
5186.086,0.76909788
5189.947,0.77068981
5193.814,0.77276349
5197.686,0.77505089
5201.564,0.77700578
5205.448,0.77858235
5209.338,0.7800133
5213.233,0.78086035
5217.134,0.78049882
5221.041,0.77953542
5224.954,0.77937863
5228.873,0.78045552
5232.798,0.78201243
5236.728,0.78341134
5240.665,0.78453934
5244.607,0.78525457
5248.555,0.78555584
5252.51,0.78598114
5256.47,0.78691515
5260.436,0.78803769
5264.408,0.78911343
5268.386,0.79048573
5272.37,0.79219783
5276.36,0.7937089
5280.356,0.79498418
5284.358,0.79663515
5288.367,0.79854384
5292.381,0.79967888
5296.401,0.79971117
5300.428,0.79948769
5304.46,0.7996328
5308.499,0.80001077
5312.544,0.80059395
5316.595,0.80158313
5320.652,0.80268169
5324.715,0.80337913
5328.785,0.80393362
5332.86,0.80518374
5336.942,0.80756714
5341.031,0.81090201
5345.125,0.81455739
5349.226,0.81724987
5353.333,0.81759494
5357.446,0.81573419
5361.566,0.81352958
5365.692,0.81253497
5369.824,0.81270532
5373.962,0.81324901
5378.107,0.81381012
5382.259,0.81437065
5386.417,0.81481553
5390.581,0.81517989
5394.751,0.81580433
5398.928,0.81686995
5403.112,0.81836217
5407.302,0.82061179
5411.498,0.82403583
5415.701,0.82795494
5419.911,0.83049908
5424.127,0.83043997
5428.349,0.82855445
5432.579,0.82648458
5436.814,0.82521257
5441.057,0.82508928
5445.305,0.8262158
5449.561,0.8283902
5453.823,0.83138465
5458.092,0.83523448
5462.368,0.83945868
5466.65,0.84250642
5470.939,0.84344623
5475.234,0.84346463
5479.537,0.84390461
5483.846,0.84417047
5488.162,0.84341317
5492.484,0.84253625
5496.814,0.8426749
5501.15,0.84390703
5505.493,0.84684874
5509.843,0.85270529
5514.2,0.86057065
5518.564,0.86764387
5522.934,0.87273453
5527.312,0.87668323
5531.696,0.88003615
5536.087,0.88364055
5540.486,0.8877763
5544.891,0.8843397
5549.303,0.85687616
5553.723,0.79702804
5558.149,0.73454854
5562.582,0.67492556
5567.023,0.64569313
5571.47,0.64774279
5575.925,0.65219118
5580.387,0.67770459
5584.856,0.71303801
5589.332,0.73826215
5593.815,0.75248516
5598.305,0.76422725
5602.803,0.77376374
5607.307,0.77791056
5611.819,0.7820665
5616.339,0.79044515
5620.865,0.79809607
5625.399,0.80075971
5629.94,0.80311869
5634.489,0.80838915
5639.044,0.81204773
5643.607,0.81134037
5648.178,0.81151085
5652.756,0.81448935
5657.341,0.81579646
5661.934,0.81471594
5666.534,0.81598096
5671.142,0.81977324
5675.757,0.8212065
5680.379,0.82021346
5685.01,0.82148983
5689.647,0.82470853
5694.293,0.8258566
5698.945,0.82634125
5703.606,0.83021084
5708.274,0.83538239
5712.949,0.83671728
5717.633,0.83585789
5722.324,0.83723986
5727.022,0.83945592
5731.729,0.83936932
5736.443,0.83951549
5741.165,0.84262985
5745.894,0.84571384
5750.631,0.84629881
5755.377,0.84830916
5760.13,0.85390256
5764.89,0.85778388
5769.659,0.85644226
5774.436,0.85472314
5779.22,0.85512502
5784.012,0.85401434
5788.813,0.85105218
5793.621,0.85104808
5798.437,0.85464956
5803.262,0.85751091
5808.094,0.85958782
5812.934,0.86477941
5817.782,0.87120019
5822.639,0.87259366
5827.503,0.87038945
5832.376,0.87012422
5837.257,0.870695
5842.146,0.86908281
5847.043,0.86864691
5851.948,0.87251116
5856.862,0.87678174
5861.783,0.87768267
5866.714,0.87919363
5871.652,0.88405959
5876.598,0.88775896
5881.553,0.88737233
5886.517,0.8873153
5891.488,0.88831808
5896.468,0.88564456
5901.457,0.88039752
5906.454,0.8788409
5911.459,0.8810356
5916.473,0.88260376
5921.495,0.88422448
5926.526,0.88935933
5931.565,0.8947507
5936.613,0.89417898
5941.67,0.89026512
5946.735,0.88866296
5951.809,0.88833543
5956.891,0.8871575
5961.982,0.88763116
5967.082,0.89075625
5972.19,0.89258276
5977.307,0.89170172
5982.433,0.89186507
5987.568,0.89340508
5992.711,0.89247172
5997.864,0.88986333
6003.025,0.88998485
6008.195,0.89204808
6013.374,0.89163935
6018.562,0.88956537
6023.759,0.8901042
6028.964,0.89347773
6034.179,0.89725484
6039.403,0.90131641
6044.636,0.90519935
6049.878,0.90566317
6055.129,0.90303542
6060.389,0.90226672
6065.658,0.90416163
6070.936,0.90448621
6076.224,0.90165305
6081.52,0.89916099
6086.826,0.89903465
6092.141,0.90025787
6097.466,0.90270893
6102.8,0.90662027
6108.143,0.90929305
6113.495,0.90807247
6118.857,0.90520322
6124.228,0.90398916
6129.609,0.90423794
6134.999,0.90486416
6140.398,0.90636838
6145.807,0.90861007
6151.226,0.90979974
6156.654,0.90962375
6162.091,0.90988895
6167.539,0.91118116
6172.996,0.91230858
6178.462,0.91282537
6183.938,0.91315681
6189.424,0.91298364
6194.92,0.91213242
6200.425,0.91176905
6205.94,0.91254689
6211.465,0.9134455
6217.0,0.91366909
6222.544,0.91400962
6228.099,0.91490156
6233.663,0.91538025
6239.237,0.91501106
6244.822,0.91486079
6250.416,0.91551239
6256.02,0.91631131
6261.635,0.91698999
6267.259,0.91806597
6272.893,0.91918012
6278.538,0.91934108
6284.193,0.9188486
6289.858,0.91894666
6295.533,0.91964129
6301.218,0.92010929
6306.914,0.92058251
6312.619,0.92173225
6318.336,0.92306714
6324.062,0.92408497
6329.799,0.92548633
6335.546,0.9273487
6341.304,0.9280668
6347.072,0.92750212
6352.851,0.92793625
6358.64,0.93000178
6364.44,0.93142765
6370.25,0.93092457
6376.071,0.92994252
6381.903,0.92954465
6387.745,0.92961387
6393.598,0.93110659
6399.461,0.93494064
6405.335,0.93875119
6411.221,0.93909294
6417.116,0.93719645
6423.023,0.93607739
6428.941,0.93533723
6434.869,0.93417092
6440.809,0.93399908
6446.759,0.93517472
6452.72,0.93581426
6458.693,0.93585838
6464.676,0.93763044
6470.671,0.94104826
6476.676,0.94315036
6482.693,0.94319856
6488.721,0.94305489
6494.76,0.94256941
6500.81,0.94099554
6506.872,0.94037009
6512.945,0.94182638
6519.029,0.94294811
6525.124,0.94216955
6531.231,0.94176773
6537.35,0.94309101
6543.48,0.94423606
6549.621,0.94449408
6555.774,0.94575851
6561.938,0.94791681
6568.114,0.94859901
6574.302,0.94825967
6580.501,0.94904403
6586.712,0.94993432
6592.934,0.94906909
6599.169,0.94814766
6605.415,0.94933965
6611.673,0.95147924
6617.943,0.95278451
6624.224,0.95382856
6630.518,0.95459662
6636.823,0.95321399
6643.141,0.95058187
6649.47,0.95003846
6655.812,0.95173194
6662.166,0.95299726
6668.532,0.95298608
6674.91,0.95312181
6681.3,0.95353339
6687.702,0.95344759
6694.117,0.95389912
6700.544,0.95576836
6706.983,0.95724338
6713.435,0.95665544
6719.899,0.95552147
6726.375,0.9554797
6732.864,0.95567574
6739.365,0.95542464
6745.879,0.95582881
6752.406,0.95724394
6758.945,0.95837701
6765.497,0.95892473
6772.062,0.95989735
6778.639,0.96089277
6785.229,0.96041928
6791.832,0.95912534
6798.448,0.95884715
6805.076,0.9594424
6811.718,0.95972685
6818.372,0.95992234
6825.039,0.96069537
6831.72,0.96149349
6838.413,0.96193744
6845.12,0.96286815
6851.84,0.96433402
6858.573,0.96473594
6865.319,0.96370853
6872.078,0.96292943
6878.851,0.96301924
6885.637,0.96313343
6892.437,0.9632177
6899.25,0.9638629
6906.076,0.96450721
6912.916,0.9642654
6919.769,0.96385668
6926.636,0.96430903
6933.517,0.96515565
6940.411,0.96562846
6947.319,0.96608864
6954.241,0.96676412
6961.176,0.96700233
6968.125,0.9669172
6975.089,0.96746232
6982.066,0.96845458
6989.057,0.96886804
6996.062,0.96884151
7003.081,0.96926879
7010.114,0.96996514
7017.161,0.97032752
7024.223,0.97079081
7031.298,0.97177733
7038.388,0.97250356
7045.492,0.97246931
7052.611,0.97249596
7059.743,0.97297311
7066.891,0.97320438
7074.052,0.97304429
7081.229,0.9732083
7088.419,0.97376831
7095.625,0.97412936
7102.845,0.97438935
7110.079,0.97506478
7117.329,0.97588419
7124.593,0.97633623
7131.872,0.97671098
7139.166,0.97739702
7146.475,0.97798068
7153.799,0.97803255
7161.137,0.97789949
7168.491,0.97801083
7175.86,0.97824898
7183.244,0.97847464
7190.643,0.97884324
7198.058,0.97938204
7205.487,0.97983038
7212.933,0.98006518
7220.393,0.98028227
7227.869,0.98066138
7235.36,0.98113377
7242.867,0.98156302
7250.39,0.98198446
7257.928,0.98246469
7265.481,0.98283469
7273.051,0.98293218
7280.636,0.98301675
7288.237,0.98342554
7295.854,0.9839672
7303.487,0.98428618
7311.135,0.98454807
7318.8,0.98505067
7326.481,0.98553627
7334.178,0.98568327
7341.891,0.98579176
7349.62,0.98616825
7357.366,0.9865749
7365.128,0.98687779
7372.906,0.987386
7380.701,0.9880813
7388.512,0.98853673
7396.34,0.9888174
7404.184,0.98940776
7412.045,0.99018932
7419.922,0.99063393
7427.817,0.9908021
7435.728,0.99111379
7443.656,0.99150728
7451.601,0.99176232
7459.562,0.99206722
7467.541,0.99254428
7475.537,0.99289093
7483.55,0.99300353
7491.58,0.99318123
7499.628,0.99349333
7507.692,0.99370354
7515.774,0.99383002
7523.874,0.99408834
7531.99,0.99443428
7540.125,0.99472356
7548.277,0.99500538
7556.446,0.99529903
7564.633,0.99549649
7572.838,0.99564421
7581.061,0.99586439
7589.302,0.99605596
7597.56,0.99610043
7605.837,0.99613322
7614.131,0.99624782
7622.444,0.99632297
7630.774,0.99635141
7639.123,0.9964853
7647.491,0.99667549
7655.876,0.99679561
7664.28,0.99698738
7672.702,0.99738202
7681.143,0.99776284
7689.602,0.99796473
7698.08,0.99816691
7706.577,0.99844544
7715.093,0.99859233
7723.627,0.99860769
7732.18,0.99877112
7740.752,0.99910251
7749.343,0.99937916
7757.953,0.99961658
7766.583,0.99997859
7775.231,0.0100036336
7783.899,0.0100063037
7792.586,0.0100092612
7801.292,0.0100137872
7810.018,0.0100182744
7818.764,0.0100218133
7827.529,0.0100260683
7836.313,0.0100315668
7845.117,0.0100365088
7853.942,0.0100404519
7862.786,0.0100449691
7871.649,0.0100503281
7880.533,0.0100552394
7889.437,0.0100594692
7898.361,0.010063465
7907.305,0.0100666646
7916.27,0.0100687457
7925.254,0.0100711908
7934.26,0.0100751012
7943.285,0.0100795742
7952.331,0.0100836183
7961.398,0.0100879974
7970.485,0.0100933287
7979.594,0.0100987253
7988.723,0.0101032611
7997.872,0.0101072791
8007.043,0.0101111007
8016.235,0.0101143117
8025.448,0.0101170295
8034.682,0.0101202143
8043.937,0.0101239334
8053.214,0.0101273527
8062.512,0.0101304959
8071.832,0.010133855
8081.173,0.0101366608
8090.535,0.0101380166
8099.92,0.0101393239
8109.326,0.0101424825
8118.754,0.010146795
8128.204,0.0101504622
8137.676,0.0101536247
8147.169,0.0101569692
8156.686,0.0101597489
8166.224,0.0101619289
8175.785,0.010165372
8185.368,0.0101704814
8194.973,0.0101750405
8204.601,0.0101781231
8214.252,0.0101813564
8223.925,0.0101850841
8233.621,0.0101878613
8243.34,0.0101901122
8253.082,0.0101939177
8262.847,0.0101989828
8272.635,0.0102031405
8282.446,0.0102063261
8292.281,0.01021004
8302.139,0.0102142571
8312.02,0.0102180403
8321.925,0.0102219814
8331.853,0.0102267018
8341.805,0.0102310053
8351.781,0.0102338648
8361.781,0.0102364864
8371.804,0.0102402006
8381.852,0.0102441202
8391.924,0.0102467389
8402.02,0.010248585
8412.14,0.0102510977
8422.285,0.0102541693
8432.454,0.0102567442
8442.648,0.0102591334
8452.866,0.0102622891
8463.109,0.0102655706
8473.377,0.0102677953
8483.67,0.0102698203
8493.988,0.0102728949
8504.331,0.010275906
8514.699,0.0102774553
8525.092,0.0102789863
8535.511,0.010281864
8545.955,0.0102843028
8556.425,0.0102848663
8566.921,0.0102857007
8577.442,0.0102883901
8587.989,0.0102909402
8598.562,0.0102919158
8609.161,0.0102929018
8619.786,0.0102944158
8630.437,0.0102949375
8641.115,0.0102950757
8651.819,0.0102972532
8662.55,0.010300861
8673.307,0.0103034748
8684.091,0.0103054684
8694.902,0.0103084701
8705.739,0.0103116161
8716.604,0.0103137626
8727.496,0.010316181
8738.415,0.0103196936
8749.361,0.010322857
8760.335,0.0103249582
8771.336,0.0103270808
8782.365,0.0103296353
8793.422,0.0103323563
8804.507,0.0103358077
8815.619,0.010340131
8826.76,0.0103443463
8837.928,0.01034836
8849.125,0.010352676
8860.351,0.0103562712
8871.604,0.0103583334
8882.887,0.0103605946
8894.198,0.0103643812
8905.538,0.0103681841
8916.907,0.0103711596
8928.305,0.0103746501
8939.732,0.0103781927
8951.188,0.0103797285
8962.673,0.0103803836
8974.189,0.0103824214
8985.733,0.0103842236
8997.308,0.0103834707
9008.912,0.010382425
9020.546,0.0103832435
9032.21,0.0103834286
9043.905,0.0103813452
9055.629,0.0103801186
9067.384,0.0103810274
9079.17,0.0103809885
9090.986,0.0103791583
9102.833,0.0103782079
9114.711,0.0103774556
9126.62,0.0103737262
9138.56,0.0103682891
9150.531,0.0103649114
9162.534,0.0103629358
9174.568,0.010359944
9186.634,0.0103572722
9198.731,0.0103566973
9210.86,0.0103559441
9223.022,0.0103532628
9235.215,0.010350828
9247.441,0.0103501096
9259.699,0.0103491129
9271.99,0.0103469186
9284.313,0.0103454283
9296.669,0.0103453132
9309.058,0.0103449982
9321.48,0.0103442192
9333.935,0.010344272
9346.423,0.0103451619
9358.945,0.0103456743
9371.5,0.0103459479
9384.089,0.0103470042
9396.712,0.0103487225
9409.369,0.0103500894
9422.06,0.0103509173
9434.785,0.0103516778
9447.545,0.0103525064
9460.339,0.0103533357
9473.167,0.0103547779
9486.031,0.0103572459
9498.929,0.0103598606
9511.863,0.0103613274
9524.832,0.0103617241
9537.836,0.0103621962
9550.876,0.0103633365
9563.951,0.0103648925
9577.062,0.0103666071
9590.209,0.0103680446
9603.393,0.0103685477
9616.612,0.0103682995
9629.868,0.010368354
9643.16,0.0103690065
9656.49,0.0103696701
9669.856,0.0103703523
9683.259,0.0103716252
9696.699,0.0103731788
9710.176,0.010374301
9723.691,0.0103750632
9737.244,0.0103757037
9750.834,0.0103757423
9764.463,0.0103752318
9778.129,0.010374961
9791.834,0.010374899
9805.577,0.0103741955
9819.359,0.010373299
9833.18,0.0103733815
9847.039,0.0103742445
9860.938,0.010374804
9874.875,0.0103752424
9888.853,0.010376122
9902.869,0.0103768646
9916.926,0.0103766692
9931.022,0.0103760384
9945.159,0.0103754748
9959.336,0.0103746267
9973.553,0.0103736175
9987.811,0.0103736119
10002.109,0.0103749002
10016.449,0.0103763404
10030.83,0.0103771532
10045.252,0.0103778005
10059.715,0.0103785684
10074.221,0.0103790531
10088.768,0.0103793651
10103.357,0.0103804625
10117.988,0.010382575
10132.662,0.0103848848
10147.378,0.010386859
10162.137,0.0103889109
10176.939,0.0103912889
10191.784,0.010393587
10206.672,0.0103956946
10221.604,0.0103979556
10236.58,0.0103999271
10251.6,0.0104007769
10266.663,0.0104009754
10281.771,0.0104018897
10296.924,0.0104036104
10312.121,0.0104052369
10327.363,0.0104066536
10342.65,0.0104083005
10357.982,0.0104097467
10373.36,0.0104106985
10388.784,0.0104118603
10404.253,0.0104133674
10419.769,0.0104140396
10435.331,0.0104134575
10450.939,0.0104125224
10466.594,0.0104114234
10482.296,0.0104097932
10498.045,0.0104085015
10513.842,0.0104084442
10529.686,0.0104088844
10545.577,0.0104093172
10561.517,0.0104106809
10577.505,0.0104126795
10593.542,0.0104135223
10609.627,0.0104134274
10625.761,0.0104142413
10641.944,0.0104152936
10658.176,0.0104147294
10674.458,0.0104136486
10690.79,0.0104137725
10707.172,0.0104137023
10723.604,0.0104125333
10740.086,0.0104125648
10756.619,0.0104144223
10773.203,0.0104150502
10789.839,0.01041393
10806.525,0.0104139435
10823.264,0.010414811
10840.054,0.0104137449
10856.896,0.0104123947
10873.791,0.0104140876
10890.738,0.0104167996
10907.738,0.010417061
10924.791,0.0104169271
10941.898,0.0104188956
10959.058,0.0104205144
10976.272,0.010420238
10993.541,0.0104212149
11010.863,0.010424251
11028.24,0.0104258628
11045.672,0.0104256337
11063.16,0.0104265325
11080.702,0.0104276801
11098.301,0.0104262599
11115.955,0.0104242421
11133.665,0.0104246649
11151.432,0.0104253333
11169.256,0.010423477
11187.137,0.0104210226
11205.075,0.0104200058
11223.07,0.0104188805
11241.124,0.0104170562
11259.235,0.0104160646
11277.405,0.0104155086
11295.634,0.0104137934
11313.921,0.0104119414
11332.268,0.0104112459
11350.675,0.0104102792
11369.141,0.0104078425
11387.667,0.0104051426
11406.254,0.0104027403
11424.901,0.0104000525
11443.61,0.0103978304
11462.38,0.0103970026
11481.211,0.0103961358
11500.105,0.010393922
11519.06,0.0103913482
11538.079,0.0103890884
11557.16,0.0103863617
11576.304,0.0103838227
11595.511,0.0103829788
11614.783,0.0103828658
11634.118,0.0103814362
11653.518,0.0103793164
11672.983,0.0103780792
11692.513,0.0103771219
11712.108,0.0103753993
11731.769,0.0103740392
11751.496,0.0103740035
11771.29,0.0103741824
11791.15,0.0103736258
11811.077,0.0103733902
11831.072,0.0103742893
11851.134,0.0103755959
11871.265,0.0103765581
11891.464,0.0103777661
11911.731,0.0103793472
11932.068,0.0103798395
11952.475,0.0103781487
11972.951,0.0103760255
11993.497,0.010375847
12014.114,0.0103774387
12034.802,0.0103790457
12055.562,0.0103807825
12076.393,0.0103829364
12097.296,0.010383477
12118.271,0.0103811351
12139.32,0.0103787067
12160.441,0.0103781938
12181.636,0.0103771925
12202.905,0.0103743302
12224.249,0.0103728978
12245.667,0.01037407
12267.16,0.0103742374
12288.729,0.0103723932
12310.373,0.0103720516
12332.094,0.0103730739
12353.892,0.0103712136
12375.767,0.0103667408
12397.719,0.0103638514
12419.75,0.0103622625
12441.859,0.0103593119
12464.046,0.0103573194
12486.313,0.0103593526
12508.659,0.0103620365
12531.086,0.0103613612
12553.593,0.0103593553
12576.18,0.0103585707
12598.85,0.010356983
12621.601,0.0103538383
12644.434,0.010352568
12667.35,0.0103542444
12690.349,0.0103552176
12713.432,0.0103543566
12736.599,0.0103544666
12759.85,0.0103558768
12783.187,0.0103558688
12806.608,0.0103549147
12830.116,0.01035593
12853.71,0.0103583848
12877.391,0.0103593798
12901.159,0.010359379
12925.016,0.0103607782
12948.96,0.0103630126
12972.993,0.0103642062
12997.116,0.0103656506
13021.329,0.0103689176
13045.631,0.010372029
13070.025,0.0103728305
13094.51,0.0103730687
13119.087,0.0103742576
13143.756,0.0103745892
13168.518,0.0103736561
13193.373,0.010374805
13218.322,0.0103784268
13243.366,0.0103804894
13268.505,0.0103800987
13293.74,0.010380896
13319.07,0.0103829726
13344.497,0.0103831607
13370.021,0.0103827449
13395.644,0.0103849123
13421.364,0.0103865324
13447.183,0.0103838267
13473.102,0.0103805482
13499.121,0.0103804999
13525.24,0.0103793536
13551.461,0.0103745261
13577.783,0.0103711657
13604.208,0.0103710062
13630.736,0.0103683032
13657.367,0.0103632931
13684.103,0.0103622427
13710.943,0.0103629707
13737.889,0.0103575386
13764.941,0.0103491482
13792.099,0.0103460872
13819.365,0.010345576
13846.739,0.0103414644
13874.221,0.0103383314
13901.813,0.0103400261
13929.515,0.0103395156
13957.327,0.0103332805
13985.25,0.0103294532
14013.285,0.0103303075
14041.433,0.0103283471
14069.694,0.0103240029
14098.068,0.0103250503
14126.558,0.0103277736
14155.163,0.0103231793
14183.883,0.0103155892
14212.721,0.0103134909
14241.676,0.010312256
14270.749,0.0103068566
14299.94,0.0103046732
14329.252,0.0103095916
14358.684,0.0103125825
14388.237,0.0103104976
14417.911,0.0103101359
14447.709,0.0103104486
14477.629,0.0103042514
14507.674,0.0102970055
14537.844,0.0102971284
14568.139,0.0102984102
14598.561,0.0102929455
14629.109,0.0102881697
14659.786,0.010289329
14690.592,0.0102888088
14721.528,0.0102841773
14752.594,0.0102838719
14783.791,0.0102843991
14815.121,0.0102749002
14846.583,0.0102590579
14878.179,0.0102477259
14909.91,0.010236435
14941.777,0.0102225943
14973.78,0.0102182237
15005.92,0.0102273045
15038.198,0.0102297338
15070.616,0.0102196605
15103.173,0.010208492
15135.871,0.0101996025
15168.712,0.0101779412
15201.695,0.0101475287
15234.821,0.0101136053
15268.092,0.0100734942
15301.509,0.0100195307
15335.072,0.99715564
15368.783,0.99269827
15402.642,0.98793652
15436.651,0.9813963
15470.81,0.97578939
15505.12,0.96914923
15539.583,0.96211068
15574.199,0.95329289
15608.97,0.94466981
15643.896,0.9299146
15678.979,0.91342724
15714.22,0.8957096
15749.619,0.88256773
15785.178,0.86714252
15820.897,0.85166146
15856.779,0.83619006
15892.824,0.82471187
15929.033,0.80596645
15965.407,0.78034804
