Database of Origin,University of Winnipeg Spectrophotometer Facility
Sample Description,See Master Clays in HOSERLab database
Date Added,2016-12-11 20:56:55.213093

Data ID,FTIR_CLAY_07        
Sample ID,HAL001
Mineral Name,Halloysite
Grain Size,<45 m
Viewing Geometry,35/0
Resolution,11-72 nm
Material Class,Phyllosilicate

Wavelength
2001.142,0.4509227
2002.307,0.4514648
2003.474,0.45226013
2004.643,0.45281195
2005.812,0.45335156
2006.983,0.45435457
2008.155,0.45519386
2009.329,0.45580639
2010.504,0.45649892
2011.68,0.4571919
2012.858,0.45786384
2014.037,0.45862388
2015.217,0.4591493
2016.399,0.4595727
2017.582,0.4601909
2018.766,0.46077172
2019.952,0.46141764
2021.139,0.46194245
2022.328,0.46218057
2023.518,0.46257136
2024.709,0.4631796
2025.902,0.46390369
2027.096,0.46454144
2028.291,0.46478954
2029.488,0.46511925
2030.686,0.46573161
2031.886,0.46646928
2033.087,0.46714404
2034.289,0.46752059
2035.493,0.46802851
2036.698,0.46865059
2037.905,0.46891824
2039.113,0.46890061
2040.322,0.46901055
2041.533,0.46950006
2042.746,0.47021241
2043.959,0.47064128
2045.174,0.47064171
2046.391,0.47078688
2047.609,0.47100855
2048.828,0.47107441
2050.049,0.47128537
2051.271,0.47129337
2052.495,0.47098626
2053.72,0.47070037
2054.947,0.47049254
2056.175,0.47054693
2057.404,0.470813
2058.635,0.47083439
2059.867,0.47051315
2061.101,0.47033024
2062.336,0.47038203
2063.573,0.47042037
2064.811,0.47060269
2066.051,0.4708282
2067.292,0.47071998
2068.534,0.47029731
2069.778,0.4700154
2071.024,0.46985293
2072.271,0.46945886
2073.519,0.4691958
2074.769,0.46942122
2076.02,0.46975557
2077.273,0.46967459
2078.528,0.46933427
2079.784,0.46907218
2081.041,0.4687921
2082.3,0.46853705
2083.56,0.4684881
2084.822,0.46866791
2086.085,0.46896991
2087.35,0.4689014
2088.617,0.46853117
2089.885,0.46863974
2091.154,0.46891459
2092.425,0.46855995
2093.697,0.46783062
2094.971,0.46706072
2096.247,0.46631332
2097.524,0.46579627
2098.803,0.46496705
2100.083,0.46354319
2101.364,0.46230657
2102.648,0.46127245
2103.932,0.4603383
2105.219,0.45961822
2106.506,0.4585588
2107.796,0.45731051
2109.087,0.45662459
2110.379,0.45656908
2111.673,0.45667036
2112.969,0.45677045
2114.266,0.45689063
2115.565,0.45668473
2116.865,0.45620136
2118.167,0.45566148
2119.471,0.45498621
2120.776,0.4543211
2122.082,0.45363239
2123.391,0.45273399
2124.7,0.45155078
2126.012,0.4500257
2127.325,0.44829909
2128.64,0.44657751
2129.956,0.44507064
2131.274,0.44371987
2132.593,0.44212825
2133.914,0.44000694
2135.237,0.43708222
2136.561,0.43396113
2137.887,0.43105947
2139.214,0.42773521
2140.544,0.4242262
2141.874,0.42055325
2143.207,0.4161604
2144.541,0.41137162
2145.876,0.40665521
2147.214,0.40207222
2148.553,0.39754532
2149.893,0.39298628
2151.235,0.38858432
2152.579,0.38437055
2153.925,0.38061539
2155.272,0.3773743
2156.621,0.37391491
2157.972,0.37069835
2159.324,0.36841518
2160.678,0.36667261
2162.033,0.36517592
2163.39,0.36407848
2164.749,0.36349317
2166.11,0.36290872
2167.472,0.36237712
2168.836,0.36212669
2170.202,0.36186972
2171.569,0.36148246
2172.938,0.36095726
2174.309,0.36068556
2175.682,0.36017039
2177.056,0.35906286
2178.432,0.35789118
2179.809,0.35628929
2181.189,0.3540706
2182.57,0.3515243
2183.952,0.3484244
2185.337,0.34491197
2186.723,0.34145199
2188.111,0.33784566
2189.501,0.33387884
2190.892,0.32976689
2192.285,0.32532156
2193.68,0.32016038
2195.077,0.31409261
2196.476,0.30729559
2197.876,0.30004227
2199.278,0.29192404
2200.682,0.2834059
2202.087,0.27584411
2203.494,0.27039488
2204.903,0.26854335
2206.314,0.27106819
2207.727,0.27813669
2209.141,0.28927831
2210.557,0.30274199
2211.975,0.31669728
2213.395,0.32996864
2214.817,0.34202342
2216.24,0.35252358
2217.665,0.36190832
2219.092,0.3700403
2220.521,0.37611679
2221.952,0.38122408
2223.384,0.38608258
2224.818,0.38993341
2226.254,0.39280806
2227.692,0.39541852
2229.132,0.3976306
2230.574,0.39942704
2232.017,0.40106766
2233.462,0.40245336
2234.91,0.4038277
2236.359,0.40489796
2237.809,0.40572538
2239.262,0.40675954
2240.717,0.40757884
2242.173,0.40810035
2243.631,0.40842888
2245.092,0.40856657
2246.554,0.40874387
2248.017,0.40885955
2249.483,0.40881737
2250.951,0.40865978
2252.421,0.40828458
2253.892,0.40796046
2255.365,0.40823401
2256.841,0.408827
2258.318,0.40900142
2259.797,0.40855073
2261.278,0.40799046
2262.761,0.40775627
2264.246,0.40769703
2265.732,0.40753494
2267.221,0.40704186
2268.712,0.4061761
2270.204,0.40542117
2271.699,0.40498676
2273.195,0.40437953
2274.694,0.40374323
2276.194,0.40306328
2277.696,0.40210072
2279.201,0.40103194
2280.707,0.39984865
2282.215,0.39869275
2283.725,0.3977707
2285.237,0.39671281
2286.752,0.39525243
2288.268,0.39375074
2289.786,0.39227715
2291.306,0.39058391
2292.828,0.38899532
2294.352,0.38753666
2295.878,0.38571399
2297.406,0.38352837
2298.936,0.38110461
2300.468,0.37858255
2302.002,0.37611845
2303.539,0.37389856
2305.077,0.37205758
2306.617,0.37032789
2308.159,0.36845538
2309.703,0.36684072
2311.25,0.36583801
2312.798,0.36476533
2314.348,0.36366546
2315.901,0.36288673
2317.455,0.36187901
2319.012,0.36096489
2320.571,0.36045833
2322.131,0.35998177
2323.694,0.35941774
2325.259,0.35901871
2326.826,0.35901545
2328.395,0.35912598
2329.966,0.35892567
2331.54,0.3584292
2333.115,0.35795812
2334.692,0.35715301
2336.272,0.35607818
2337.854,0.3550723
2339.437,0.35345181
2341.023,0.35131427
2342.611,0.34926338
2344.201,0.34731769
2345.794,0.34536055
2347.388,0.34351949
2348.985,0.34187645
2350.583,0.34033034
2352.184,0.3393005
2353.787,0.33877739
2355.393,0.33850371
2357.0,0.33858352
2358.609,0.3386565
2360.221,0.33879136
2361.835,0.33909677
2363.451,0.33899086
2365.069,0.33828417
2366.69,0.33707725
2368.312,0.33546728
2369.937,0.33336416
2371.564,0.33074
2373.194,0.32796767
2374.825,0.32527191
2376.459,0.32284618
2378.095,0.3206954
2379.733,0.31893182
2381.373,0.31782089
2383.016,0.31716893
2384.661,0.31705319
2386.308,0.31737614
2387.957,0.31785457
2389.609,0.31831644
2391.263,0.31860334
2392.919,0.31881615
2394.577,0.31908514
2396.238,0.31933878
2397.901,0.31946875
2399.566,0.31965858
2401.233,0.31990202
2402.903,0.31970445
2404.575,0.31885955
2406.25,0.3178439
2407.926,0.31696357
2409.606,0.3159093
2411.287,0.31445695
2412.971,0.31306734
2414.657,0.31194744
2416.345,0.31068314
2418.036,0.30919847
2419.729,0.30761229
2421.424,0.30600782
2423.122,0.30455809
2424.822,0.30300757
2426.524,0.30128563
2428.229,0.29957473
2429.936,0.29776144
2431.646,0.29609404
2433.358,0.29459996
2435.072,0.29279699
2436.789,0.29101616
2438.508,0.28986468
2440.229,0.28903386
2441.953,0.28831265
2443.679,0.28795235
2445.408,0.287879
2447.139,0.28754867
2448.873,0.28687234
2450.609,0.28632148
2452.347,0.28595332
2454.088,0.28550392
2455.831,0.28477883
2457.577,0.28380439
2459.325,0.28277888
2461.076,0.2817419
2462.829,0.28062718
2464.585,0.27945288
2466.343,0.27837371
2468.104,0.27727021
2469.867,0.2759771
2471.632,0.27456298
2473.4,0.27288955
2475.171,0.27130217
2476.944,0.26994152
2478.72,0.26837193
2480.498,0.26679142
2482.278,0.26529973
2484.062,0.26398831
2485.847,0.26315211
2487.636,0.26269962
2489.427,0.2622725
2491.22,0.26166275
2493.016,0.26103856
2494.814,0.26050909
2496.615,0.25996144
2498.419,0.25921135
2500.225,0.25844399
2502.034,0.25766931
2503.845,0.2567932
2505.659,0.25591745
2507.476,0.25501676
2509.295,0.25421459
2511.117,0.25344796
2512.942,0.25264464
2514.769,0.25175242
2516.598,0.25073123
2518.431,0.24988727
2520.266,0.24929939
2522.103,0.24872983
2523.944,0.24788876
2525.787,0.24681164
2527.632,0.24589369
2529.48,0.24548974
2531.331,0.24521298
2533.185,0.24442714
2535.041,0.24336667
2536.9,0.24185343
2538.762,0.2402459
2540.627,0.23979999
2542.494,0.2396385
2544.364,0.23819543
2546.236,0.23713993
2548.112,0.23681318
2549.99,0.23658934
2551.87,0.23603166
2553.754,0.2338409
2555.64,0.23154163
2557.529,0.23080092
2559.421,0.23237746
2561.316,0.23488868
2563.213,0.23338047
2565.113,0.22827004
2567.016,0.22580315
2568.922,0.22554757
2570.831,0.22468212
2572.742,0.22444253
2574.656,0.22426529
2576.573,0.22253386
2578.493,0.22002309
2580.416,0.21964707
2582.342,0.22120109
2584.27,0.22029713
2586.201,0.21810707
2588.135,0.21618306
2590.072,0.21322618
2592.012,0.2143369
2593.955,0.22164396
2595.9,0.21821614
2597.849,0.20816334
2599.8,0.20556972
2601.755,0.20713643
2603.712,0.20945243
2605.672,0.2091156
2607.635,0.20483247
2609.601,0.20065294
2611.57,0.19761081
2613.542,0.19667762
2615.517,0.19884613
2617.495,0.19968854
2619.475,0.19672794
2621.459,0.19089429
2623.446,0.18615745
2625.435,0.18545573
2627.428,0.18555121
2629.424,0.18524489
2631.423,0.18247988
2633.424,0.17681717
2635.429,0.17155215
2637.437,0.16745487
2639.447,0.1648525
2641.461,0.16258755
2643.478,0.1603874
2645.498,0.15795028
2647.521,0.15352546
2649.547,0.1499122
2651.576,0.14842653
2653.609,0.14582276
2655.644,0.14091812
2657.682,0.13677974
2659.724,0.13406249
2661.768,0.13026926
2663.816,0.13041071
2665.867,0.13241758
2667.921,0.1277964
2669.978,0.12292368
2672.038,0.11166034
2674.102,0.10297813
2676.168,0.1033056
2678.238,0.09773236
2680.311,0.08328442
2682.387,0.07499678
2684.467,0.07129446
2686.549,0.06590999
2688.635,0.05893217
2690.724,0.05525424
2692.816,0.0585501
2694.911,0.06190583
2697.01,0.05659666
2699.112,0.05419545
2701.217,0.0569096
2703.325,0.05751125
2705.437,0.05782682
2707.552,0.06365471
2709.67,0.07454999
2711.791,0.07590455
2713.916,0.06627359
2716.044,0.06149373
2718.175,0.06740743
2720.31,0.07987788
2722.448,0.07968604
2724.589,0.07173919
2726.734,0.06076185
2728.882,0.05096156
2731.034,0.04688002
2733.188,0.0457904
2735.347,0.04384948
2737.508,0.0420767
2739.673,0.0451853
2741.841,0.04198046
2744.013,0.03264821
2746.188,0.02835504
2748.367,0.02697644
2750.549,0.02609716
2752.734,0.02629087
2754.923,0.02842164
2757.115,0.02703521
2759.311,0.02350181
2761.51,0.02375583
2763.713,0.02509861
2765.919,0.02486766
2768.129,0.02522224
2770.342,0.02585506
2772.559,0.02487739
2774.779,0.02360061
2777.003,0.02375708
2779.23,0.02422376
2781.461,0.02415513
2783.696,0.02399785
2785.934,0.02479729
2788.175,0.0254277
2790.42,0.0242716
2792.669,0.02373495
2794.922,0.02381068
2797.178,0.02378552
2799.437,0.02395603
2801.7,0.02470374
2803.967,0.02522219
2806.238,0.02422387
2808.512,0.02318586
2810.789,0.02243744
2813.071,0.02234028
2815.356,0.02247987
2817.645,0.0224482
2819.937,0.02277677
2822.233,0.02248155
2824.533,0.02183559
2826.837,0.02197844
2829.144,0.02202882
2831.455,0.02178748
2833.77,0.02180127
2836.089,0.02181752
2838.411,0.02171357
2840.737,0.02137516
2843.067,0.02116498
2845.401,0.02102445
2847.739,0.0210092
2850.08,0.02117635
2852.425,0.02121238
2854.774,0.02111551
2857.127,0.02096005
2859.484,0.02087832
2861.844,0.02107643
2864.209,0.02107758
2866.577,0.02062482
2868.949,0.02031296
2871.325,0.02042709
2873.705,0.0204662
2876.089,0.02022214
2878.477,0.02022623
2880.869,0.02023381
2883.265,0.01991709
2885.664,0.01972328
2888.068,0.02002794
2890.476,0.02040174
2892.887,0.02013555
2895.303,0.01966292
2897.723,0.01956292
2900.146,0.01962985
2902.574,0.01970059
2905.006,0.01948571
2907.441,0.01926927
2909.881,0.01934797
2912.325,0.01942669
2914.773,0.01953769
2917.225,0.01973198
2919.681,0.01971147
2922.142,0.01942976
2924.606,0.01920634
2927.075,0.01921402
2929.547,0.01925995
2932.024,0.01937711
2934.505,0.01946606
2936.99,0.01938873
2939.479,0.01937439
2941.973,0.0193191
2944.471,0.01959639
2946.973,0.02039019
2949.479,0.02045608
2951.989,0.01989655
2954.504,0.01998585
2957.023,0.01994686
2959.546,0.01943441
2962.073,0.01928454
2964.605,0.01952945
2967.141,0.0196596
2969.681,0.01969605
2972.226,0.02002237
2974.775,0.02062775
2977.328,0.02081744
2979.886,0.02031936
2982.448,0.01986246
2985.015,0.01985497
2987.586,0.02004796
2990.161,0.0204109
2992.74,0.02088114
2995.324,0.02088519
2997.913,0.02072322
3000.506,0.02099132
3003.103,0.02136289
3005.705,0.02123745
3008.312,0.02093986
3010.922,0.02110832
3013.538,0.02167091
3016.158,0.02197825
3018.782,0.02182436
3021.411,0.02167182
3024.044,0.02177997
3026.683,0.02205085
3029.325,0.02300795
3031.972,0.02447692
3034.624,0.02463652
3037.281,0.02351635
3039.942,0.02308094
3042.607,0.02368969
3045.278,0.02432483
3047.953,0.02424573
3050.632,0.02392271
3053.317,0.0239866
3056.006,0.02424355
3058.7,0.0245811
3061.398,0.02520724
3064.101,0.02601005
3066.809,0.02613534
3069.522,0.02559992
3072.239,0.02549544
3074.962,0.02579072
3077.689,0.0261631
3080.421,0.02647295
3083.157,0.02645287
3085.899,0.02687412
3088.645,0.02749913
3091.396,0.0274539
3094.153,0.02725264
3096.914,0.02753411
3099.679,0.02859051
3102.45,0.02921286
3105.226,0.02862227
3108.007,0.02827857
3110.792,0.02860544
3113.583,0.02899623
3116.378,0.02940892
3119.179,0.02971657
3121.985,0.03000836
3124.795,0.03052499
3127.611,0.03097453
3130.431,0.03143329
3133.257,0.03201164
3136.088,0.03237048
3138.924,0.03253347
3141.765,0.03287753
3144.611,0.03351259
3147.462,0.03408794
3150.319,0.03461607
3153.18,0.0352703
3156.047,0.03592552
3158.919,0.03653939
3161.796,0.03718638
3164.678,0.0379298
3167.566,0.03857097
3170.458,0.03917692
3173.356,0.0398828
3176.26,0.04059802
3179.168,0.04212068
3182.082,0.04370467
3185.001,0.04387474
3187.926,0.04395652
3190.856,0.04485541
3193.791,0.04606622
3196.731,0.04671979
3199.677,0.04683604
3202.629,0.04767389
3205.585,0.04878512
3208.548,0.04943378
3211.515,0.05102209
3214.488,0.05386463
3217.467,0.05581237
3220.451,0.05556817
3223.441,0.05501442
3226.436,0.05572475
3229.437,0.0563421
3232.443,0.05689437
3235.455,0.05796092
3238.472,0.05883117
3241.495,0.05979567
3244.523,0.06121831
3247.558,0.06264901
3250.598,0.06415648
3253.643,0.06591506
3256.694,0.06760062
3259.751,0.06818534
3262.814,0.06771234
3265.882,0.06818306
3268.956,0.06973313
3272.036,0.07076716
3275.122,0.07123948
3278.213,0.07215886
3281.31,0.07358541
3284.413,0.07511009
3287.522,0.07645292
3290.637,0.0773562
3293.757,0.07885783
3296.884,0.08076293
3300.016,0.08135577
3303.155,0.08194838
3306.299,0.08350071
3309.449,0.084489
3312.605,0.0851238
3315.767,0.0863507
3318.936,0.08772839
3322.11,0.08911589
3325.29,0.09116439
3328.476,0.09354834
3331.669,0.0944919
3334.867,0.09405132
3338.072,0.09421239
3341.282,0.09532449
3344.499,0.09700806
3347.722,0.09879185
3350.952,0.10025157
3354.187,0.10104959
3357.429,0.10125303
3360.677,0.10205846
3363.931,0.10359982
3367.191,0.10477652
3370.458,0.10551811
3373.731,0.1062073
3377.01,0.10695249
3380.296,0.10833905
3383.588,0.11017407
3386.886,0.11191567
3390.191,0.11348576
3393.502,0.11517329
3396.82,0.11697292
3400.144,0.11830819
3403.475,0.11976664
3406.812,0.12128096
3410.156,0.12181647
3413.506,0.12228567
3416.862,0.12351222
3420.226,0.12545125
3423.596,0.12797848
3426.972,0.12991611
3430.355,0.13125375
3433.745,0.13300505
3437.141,0.13542353
3440.545,0.13849608
3443.954,0.14088703
3447.371,0.14145798
3450.794,0.14192214
3454.224,0.14343689
3457.661,0.1450678
3461.105,0.14666561
3464.556,0.14835508
3468.013,0.14957836
3471.477,0.15056768
3474.948,0.15186473
3478.426,0.15335321
3481.911,0.15472547
3485.403,0.15603638
3488.902,0.15833371
3492.408,0.16048403
3495.921,0.16092268
3499.441,0.16157235
3502.968,0.16308198
3506.502,0.16488167
3510.043,0.16705667
3513.592,0.1690966
3517.147,0.17099605
3520.71,0.17300309
3524.28,0.17498136
3527.857,0.17664873
3531.441,0.17888776
3535.032,0.18156187
3538.631,0.18288306
3542.237,0.18349208
3545.851,0.18457451
3549.471,0.18607377
3553.099,0.187869
3556.735,0.18948048
3560.378,0.19069344
3564.028,0.19181621
3567.686,0.19339776
3571.351,0.19533795
3575.024,0.19708974
3578.704,0.19888107
3582.392,0.2011237
3586.088,0.203405
3589.791,0.20500581
3593.501,0.20652079
3597.22,0.20842354
3600.946,0.20982548
3604.679,0.21092984
3608.421,0.2123324
3612.17,0.21411673
3615.926,0.21611783
3619.691,0.21743161
3623.463,0.21840289
3627.244,0.21966933
3631.032,0.22097455
3634.828,0.22236125
3638.632,0.22378161
3642.444,0.22511141
3646.263,0.22651536
3650.091,0.22816929
3653.927,0.22958682
3657.771,0.23046871
3661.623,0.23138645
3665.483,0.23249185
3669.351,0.23342691
3673.227,0.23431847
3677.111,0.23555006
3681.004,0.23702339
3684.905,0.23823615
3688.814,0.23923405
3692.731,0.24057897
3696.656,0.24233024
3700.59,0.24429136
3704.532,0.24628556
3708.483,0.24820309
3712.442,0.25020489
3716.409,0.2522064
3720.385,0.25394975
3724.37,0.25543251
3728.362,0.25679977
3732.364,0.25812442
3736.374,0.25932942
3740.392,0.26069837
3744.419,0.26251732
3748.455,0.26448249
3752.499,0.26626355
3756.553,0.26779708
3760.614,0.26913996
3764.685,0.27042532
3768.764,0.27189851
3772.853,0.27345781
3776.95,0.27490154
3781.056,0.27623647
3785.17,0.27742438
3789.294,0.27856331
3793.427,0.27982011
3797.568,0.28117347
3801.719,0.28252885
3805.879,0.28370435
3810.048,0.28459369
3814.225,0.28561349
3818.412,0.28679776
3822.609,0.28788582
3826.814,0.28893427
3831.029,0.2898744
3835.252,0.29085776
3839.486,0.29190934
3843.728,0.29282485
3847.98,0.29372761
3852.241,0.29460811
3856.512,0.29563415
3860.792,0.29687011
3865.081,0.29773726
3869.38,0.29843309
3873.689,0.2993412
3878.007,0.30017339
3882.334,0.30101974
3886.672,0.30188705
3891.019,0.30281333
3895.375,0.30383514
3899.742,0.30458411
3904.118,0.30506081
3908.504,0.30573903
3912.9,0.30669796
3917.305,0.30742535
3921.721,0.30794412
3926.146,0.30849513
3930.581,0.30903297
3935.027,0.30956081
3939.482,0.31026396
3943.948,0.31118646
3948.423,0.31203735
3952.909,0.31270544
3957.405,0.31334613
3961.911,0.31411886
3966.427,0.31488233
3970.954,0.3156473
3975.491,0.31652012
3980.038,0.31734642
3984.595,0.31806264
3989.163,0.31863375
3993.742,0.3191155
3998.33,0.31969352
4002.93,0.32044452
4007.54,0.32116798
4012.16,0.32168784
4016.791,0.32222971
4021.433,0.322954
4026.086,0.32361013
4030.749,0.32414722
4035.423,0.32473979
4040.108,0.32545836
4044.804,0.32620233
4049.51,0.32693414
4054.228,0.32767531
4058.956,0.32833593
4063.695,0.32908663
4068.446,0.32998392
4073.207,0.33075938
4077.98,0.33150719
4082.764,0.3325213
4087.559,0.33350434
4092.365,0.3344241
4097.183,0.33558255
4102.012,0.33660759
4106.852,0.33760955
4111.703,0.33878487
4116.566,0.33977602
4121.441,0.34076689
4126.327,0.34199322
4131.224,0.34326781
4136.133,0.34437918
4141.054,0.34554947
4145.987,0.34688472
4150.931,0.3481064
4155.887,0.34942962
4160.854,0.35085832
4165.834,0.35199011
4170.826,0.35299383
4175.829,0.35419413
4180.844,0.35552657
4185.872,0.35707891
4190.911,0.35946852
4195.963,0.36374479
4201.026,0.37124302
4206.102,0.38300622
4211.19,0.39852638
4216.291,0.41568297
4221.404,0.432781
4226.529,0.44857033
4231.666,0.46074593
4236.816,0.46741988
4241.979,0.46682639
4247.154,0.45708649
4252.341,0.43605366
4257.542,0.41985256
4262.754,0.42543314
4267.98,0.44287682
4273.219,0.45088337
4278.47,0.45137433
4283.734,0.45118236
4289.011,0.45135433
4294.301,0.44939844
4299.604,0.44571099
4304.92,0.44282189
4310.25,0.4385412
4315.592,0.43190972
4320.948,0.42579394
4326.317,0.42155167
4331.699,0.41772823
4337.095,0.4141836
4342.504,0.4115539
4347.926,0.40984566
4353.362,0.40889068
4358.811,0.40849259
4364.275,0.40848704
4369.751,0.40842879
4375.242,0.40850691
4380.746,0.4093799
4386.264,0.41104205
4391.796,0.41286538
4397.342,0.41438524
4402.902,0.41587152
4408.476,0.41734994
4414.064,0.41857534
4419.666,0.41985332
4425.282,0.42116885
4430.913,0.42231329
4436.558,0.42344116
4442.217,0.42443132
4447.891,0.42535156
4453.579,0.42651806
4459.281,0.42769168
4464.998,0.428678
4470.73,0.4296067
4476.477,0.43040355
4482.238,0.4309988
4488.014,0.43176705
4493.805,0.43277939
4499.611,0.43371538
4505.431,0.43448657
4511.267,0.43518558
4517.118,0.43613552
4522.984,0.43720977
4528.865,0.43824213
4534.762,0.43950276
4540.674,0.44055805
4546.601,0.44104863
4552.543,0.44177107
4558.502,0.44296619
4564.475,0.44388234
4570.465,0.44482734
4576.47,0.44601434
4582.491,0.44699537
4588.527,0.44796245
4594.58,0.44882792
4600.648,0.44952408
4606.732,0.45022522
4612.833,0.45113139
4618.949,0.4520374
4625.082,0.452791
4631.231,0.45373268
4637.397,0.45477463
4643.578,0.45563173
4649.777,0.45634469
4655.991,0.45736905
4662.223,0.45871243
4668.471,0.45992393
4674.735,0.46120551
4681.017,0.46301023
4687.315,0.46477353
4693.63,0.46624377
4699.962,0.46811391
4706.312,0.46990396
4712.678,0.47150318
4719.062,0.47341302
4725.463,0.47530714
4731.881,0.47693315
4738.316,0.4784116
4744.769,0.48011486
4751.24,0.4821394
4757.728,0.48402442
4764.234,0.48572763
4770.758,0.48774778
4777.299,0.49003201
4783.859,0.49195247
4790.436,0.49318693
4797.032,0.49384407
4803.645,0.49434599
4810.277,0.49544089
4816.927,0.49692407
4823.596,0.4981781
4830.283,0.49943944
4836.988,0.50153282
4843.712,0.50347831
4850.455,0.50407071
4857.216,0.50477556
4863.996,0.50610207
4870.795,0.50746192
4877.613,0.50872704
4884.451,0.50998512
4891.307,0.51187596
4898.182,0.51373861
4905.077,0.51442109
4911.991,0.51495754
4918.925,0.51612979
4925.878,0.51745618
4932.851,0.51883464
4939.844,0.52009613
4946.856,0.52195839
4953.888,0.52513005
4960.941,0.52633097
4968.013,0.52521316
4975.105,0.52548557
4982.218,0.52655688
4989.351,0.52727838
4996.504,0.52825701
5003.678,0.52896694
5010.872,0.53128734
5018.087,0.53570662
5025.323,0.53619258
5032.58,0.53325425
5039.857,0.53186615
5047.156,0.53196379
5054.475,0.53257075
5061.816,0.53333527
5069.179,0.53426104
5076.562,0.53736923
5083.967,0.54013613
5091.394,0.53861291
5098.842,0.53743367
5106.312,0.53854959
5113.804,0.53951417
5121.318,0.53995354
5128.854,0.54080433
5136.412,0.54492815
5143.992,0.55203078
5151.595,0.55209345
5159.22,0.54672409
5166.868,0.54619014
5174.538,0.54808352
5182.231,0.5490197
5189.947,0.55266994
5197.686,0.55944641
5205.448,0.56534857
5213.233,0.56772424
5221.041,0.56332834
5228.873,0.56198531
5236.728,0.56620308
5244.607,0.56628178
5252.51,0.56546937
5260.436,0.56683191
5268.386,0.57042898
5276.36,0.57436036
5284.358,0.57888712
5292.381,0.58268057
5300.428,0.57980572
5308.499,0.57709744
5316.595,0.5780062
5324.715,0.57902676
5332.86,0.58037665
5341.031,0.59113965
5349.226,0.6063053
5357.446,0.60067182
5365.692,0.58824443
5373.962,0.58691897
5382.259,0.58789021
5390.581,0.58793188
5398.928,0.58993445
5407.302,0.59834463
5415.701,0.61666782
5424.127,0.62333449
5432.579,0.60988965
5441.057,0.60531402
5449.561,0.61190125
5458.092,0.62734978
5466.65,0.6454019
5475.234,0.64885814
5483.846,0.64622673
5492.484,0.64510131
5501.15,0.65462982
5509.843,0.67376334
5518.564,0.70139156
5527.312,0.73093095
5536.087,0.76621528
5544.891,0.84338422
5553.723,0.91717289
5562.582,0.85677983
5571.47,0.62505912
5580.387,0.45328418
5589.332,0.42318364
5598.305,0.43098917
5607.307,0.44858927
5616.339,0.46878259
5625.399,0.48711891
5634.489,0.5063145
5643.607,0.52080865
5652.756,0.52435565
5661.934,0.52722445
5671.142,0.53664537
5680.379,0.54491595
5689.647,0.54672769
5698.945,0.55113222
5708.274,0.56362703
5717.633,0.5711109
5727.022,0.57064652
5736.443,0.57324504
5745.894,0.57595068
5755.377,0.58431849
5764.89,0.59688162
5774.436,0.59113858
5784.012,0.57937113
5793.621,0.57673676
5803.262,0.58363735
5812.934,0.60438374
5822.639,0.62014412
5832.376,0.60719314
5842.146,0.59488425
5851.948,0.60187803
5861.783,0.61544947
5871.652,0.63089008
5881.553,0.64417209
5891.488,0.63697863
5901.457,0.61820138
5911.459,0.61114628
5921.495,0.62370062
5931.565,0.64629431
5941.67,0.64211676
5951.809,0.6256085
5961.982,0.62897038
5972.19,0.6374626
5982.433,0.64250017
5992.711,0.63625967
6003.025,0.62887616
6013.374,0.62944188
6023.759,0.6250138
6034.179,0.64280847
6044.636,0.67161921
6055.129,0.66500339
6065.658,0.66059675
6076.224,0.65175644
6086.826,0.63509923
6097.466,0.64643342
6108.143,0.66693957
6118.857,0.65575898
6129.609,0.6427995
6140.398,0.64950928
6151.226,0.65780754
6162.091,0.65761488
6172.996,0.66226477
6183.938,0.66756916
6194.92,0.65911198
6205.94,0.65702972
6217.0,0.66042519
6228.099,0.6607403
6239.237,0.6616114
6250.416,0.66269621
6261.635,0.66542574
6272.893,0.66766657
6284.193,0.66836774
6295.533,0.66935225
6306.914,0.67048047
6318.336,0.67341572
6329.799,0.68762249
6341.304,0.69801017
6352.851,0.69418312
6364.44,0.69840275
6376.071,0.69842543
6387.745,0.69702829
6399.461,0.72269034
6411.221,0.74890122
6423.023,0.73047266
6434.869,0.71126404
6446.759,0.70751006
6458.693,0.71285414
6470.671,0.73455218
6482.693,0.75695681
6494.76,0.74514677
6506.872,0.72973389
6519.029,0.72796461
6531.231,0.7256936
6543.48,0.7333046
6555.774,0.7486047
6568.114,0.75721669
6580.501,0.75442839
6592.934,0.74547056
6605.415,0.74181041
6617.943,0.7590503
6630.518,0.77340321
6643.141,0.7484361
6655.812,0.73477302
6668.532,0.74391051
6681.3,0.7415307
6694.117,0.7410576
6706.983,0.75148323
6719.899,0.74483229
6732.864,0.73239901
6745.879,0.73162343
6758.945,0.7396238
6772.062,0.75602781
6785.229,0.75979379
6798.448,0.74436882
6811.718,0.74189015
6825.039,0.74460697
6838.413,0.75104515
6851.84,0.77110089
6865.319,0.76524474
6878.851,0.74629923
6892.437,0.74503285
6906.076,0.74463344
6919.769,0.73913833
6933.517,0.7426722
6947.319,0.75645011
6961.176,0.75794218
6975.089,0.75111419
6989.057,0.75049418
7003.081,0.75063418
7017.161,0.75482694
7031.298,0.76607476
7045.492,0.7679296
7059.743,0.75668604
7074.052,0.75160547
7088.419,0.75365238
7102.845,0.75736569
7117.329,0.76019139
7131.872,0.76502601
7146.475,0.77323613
7161.137,0.77364193
7175.86,0.7676333
7190.643,0.7689799
7205.487,0.77095501
7220.393,0.76733246
7235.36,0.76738104
7250.39,0.77246937
7265.481,0.77769165
7280.636,0.7768988
7295.854,0.77406406
7311.135,0.77697441
7326.481,0.78320048
7341.891,0.78243387
7357.366,0.77793607
7372.906,0.77754842
7388.512,0.77846239
7404.184,0.77926618
7419.922,0.7797923
7435.728,0.78337335
7451.601,0.78987442
7467.541,0.79024874
7483.55,0.78623197
7499.628,0.78526475
7515.774,0.78612197
7531.99,0.7870136
7548.277,0.78886745
7564.633,0.79184032
7581.061,0.79378327
7597.56,0.79424634
7614.131,0.79436055
7630.774,0.7946117
7647.491,0.79523245
7664.28,0.79574137
7681.143,0.79643874
7698.08,0.79756498
7715.093,0.79848055
7732.18,0.7993444
7749.343,0.80016611
7766.583,0.80043231
7783.899,0.80080196
7801.292,0.80146957
7818.764,0.80202558
7836.313,0.80298212
7853.942,0.80423264
7871.649,0.80511795
7889.437,0.80604038
7907.305,0.80740288
7925.254,0.80853013
7943.285,0.80908377
7961.398,0.80956943
7979.594,0.81022582
7997.872,0.8112413
8016.235,0.81243592
8034.682,0.81328828
8053.214,0.81412169
8071.832,0.81509577
8090.535,0.8159175
8109.326,0.81664217
8128.204,0.81735256
8147.169,0.81797598
8166.224,0.81846325
8185.368,0.81894673
8204.601,0.81934748
8223.925,0.81966912
8243.34,0.81999042
8262.847,0.82019992
8282.446,0.82049858
8302.139,0.82106066
8321.925,0.82166614
8341.805,0.82218952
8361.781,0.82287951
8381.852,0.82369251
8402.02,0.8244011
8422.285,0.82501278
8442.648,0.82541568
8463.109,0.82573794
8483.67,0.82629593
8504.331,0.82684634
8525.092,0.82728416
8545.955,0.82779203
8566.921,0.82827454
8587.989,0.82884305
8609.161,0.82954517
8630.437,0.83032478
8651.819,0.83106401
8673.307,0.8316335
8694.902,0.832328
8716.604,0.83309625
8738.415,0.8337536
8760.335,0.8343511
8782.365,0.83487652
8804.507,0.83532512
8826.76,0.83558837
8849.125,0.83573855
8871.604,0.83592253
8894.198,0.83614707
8916.907,0.83639574
8939.732,0.83658255
8962.673,0.8368724
8985.733,0.83740217
9008.912,0.83798064
9032.21,0.83863364
9055.629,0.83931286
9079.17,0.83984301
9102.833,0.84029584
9126.62,0.84078222
9150.531,0.8410649
9174.568,0.84109793
9198.731,0.84122401
9223.022,0.84138875
9247.441,0.84156064
9271.99,0.84185615
9296.669,0.84223972
9321.48,0.84243099
9346.423,0.84249964
9371.5,0.84278751
9396.712,0.84311461
9422.06,0.84347486
9447.545,0.84397639
9473.167,0.84446901
9498.929,0.84477134
9524.832,0.84504262
9550.876,0.8454841
9577.062,0.84588824
9603.393,0.84624737
9629.868,0.84670276
9656.49,0.84714114
9683.259,0.84746888
9710.176,0.84791441
9737.244,0.84863672
9764.463,0.84942702
9791.834,0.85016729
9819.359,0.85094993
9847.039,0.85170204
9874.875,0.85229484
9902.869,0.85277139
9931.022,0.85330375
9959.336,0.85393288
9987.811,0.85447737
10016.449,0.85489966
10045.252,0.85537161
10074.221,0.85595014
10103.357,0.85649525
10132.662,0.85698419
10162.137,0.85743707
10191.784,0.85788194
10221.604,0.85832308
10251.6,0.85875448
10281.771,0.85917235
10312.121,0.85944076
10342.65,0.85971117
10373.36,0.86007059
10404.253,0.86035438
10435.331,0.86060084
10466.594,0.86090374
10498.045,0.86124085
10529.686,0.86154664
10561.517,0.86189749
10593.542,0.86225243
10625.761,0.86244372
10658.176,0.86263184
10690.79,0.86291565
10723.604,0.86306255
10756.619,0.86293807
10789.839,0.86278019
10823.264,0.8627552
10856.896,0.86272344
10890.738,0.86266527
10924.791,0.86257685
10959.058,0.86248228
10993.541,0.86231036
11028.24,0.86191754
11063.16,0.86159419
11098.301,0.86148239
11133.665,0.86136499
11169.256,0.86131643
11205.075,0.86140563
11241.124,0.86150518
11277.405,0.86190949
11313.921,0.86258124
11350.675,0.86304067
11387.667,0.86360176
11424.901,0.8643717
11462.38,0.86495977
11500.105,0.86555628
11538.079,0.86628081
11576.304,0.86676638
11614.783,0.86694019
11653.518,0.86714515
11692.513,0.86758899
11731.769,0.86806524
11771.29,0.8683129
11811.077,0.86846676
11851.134,0.86881672
11891.464,0.86902155
11932.068,0.86910733
11972.951,0.86948608
12014.114,0.86964714
12055.562,0.86947986
12097.296,0.86921528
12139.32,0.86860889
12181.636,0.86793283
12224.249,0.86804039
12267.16,0.86872942
12310.373,0.86925448
12353.892,0.86955829
12397.719,0.86972022
12441.859,0.86987097
12486.313,0.87010734
12531.086,0.87033854
12576.18,0.87041125
12621.601,0.87024096
12667.35,0.87007917
12713.432,0.87024818
12759.85,0.87047514
12806.608,0.87057576
12853.71,0.87071397
12901.159,0.8707516
12948.96,0.8705638
12997.116,0.87044701
13045.631,0.87038279
13094.51,0.87038031
13143.756,0.87027889
13193.373,0.86976094
13243.366,0.86947896
13293.74,0.869711
13344.497,0.87013504
13395.644,0.87032161
13447.183,0.87036739
13499.121,0.87059186
13551.461,0.8707262
13604.208,0.87107483
13657.367,0.87158523
13710.943,0.87166328
13764.941,0.87144736
13819.365,0.87129028
13874.221,0.87101789
13929.515,0.87062715
13985.25,0.87006839
14041.433,0.869332
14098.068,0.86854504
14155.163,0.86717939
14212.721,0.86577053
14270.749,0.86443654
14329.252,0.86250018
14388.237,0.86029081
14447.709,0.85816945
14507.674,0.85595775
14568.139,0.85281638
14629.109,0.84823994
14690.592,0.84265261
14752.594,0.83611453
14815.121,0.82874377
14878.179,0.82443372
14941.777,0.81893604
15005.92,0.80312146
15070.616,0.78476535
15135.871,0.76782833
15201.695,0.74741763
15268.092,0.72038807
15335.072,0.68820364
15402.642,0.65471999
15470.81,0.61826274
15539.583,0.57720752
15608.97,0.53577992
15678.979,0.49658651
15749.619,0.45909032
15820.897,0.42419138
15892.824,0.39217568
15965.407,0.3642997
