Database of Origin,University of Winnipeg Spectrophotometer Facility
Sample Description,See Master Clays in HOSERLab database
Date Added,2016-12-11 20:56:55.173089

Data ID,FTIR_CLAY_05        
Sample ID,GLA103
Mineral Name,Glauconite
Grain Size,<45 m
Viewing Geometry,35/0
Resolution,11-72 nm
Material Class,Phyllosilicate

Wavelength
2001.142,0.41111163
2002.307,0.41179168
2003.474,0.41228304
2004.643,0.41275374
2005.812,0.41342491
2006.983,0.41423464
2008.155,0.41476805
2009.329,0.4155207
2010.504,0.41649061
2011.68,0.41721828
2012.858,0.41779812
2014.037,0.41836506
2015.217,0.41893812
2016.399,0.41961254
2017.582,0.42026201
2018.766,0.42098827
2019.952,0.42175574
2021.139,0.42226949
2022.328,0.42264441
2023.518,0.4231104
2024.709,0.42378406
2025.902,0.42437357
2027.096,0.42502671
2028.291,0.42579901
2029.488,0.42627617
2030.686,0.42667716
2031.886,0.4272126
2033.087,0.42794992
2034.289,0.42874141
2035.493,0.42951431
2036.698,0.4301823
2037.905,0.43057814
2039.113,0.43098663
2040.322,0.43140862
2041.533,0.43184583
2042.746,0.43242657
2043.959,0.43280218
2045.174,0.43320421
2046.391,0.43394184
2047.609,0.43430779
2048.828,0.4343508
2050.049,0.43464165
2051.271,0.43505586
2052.495,0.43549953
2053.72,0.43579909
2054.947,0.4359266
2056.175,0.43649832
2057.404,0.43723134
2058.635,0.4377008
2059.867,0.43821482
2061.101,0.43849584
2062.336,0.43854134
2063.573,0.4386359
2064.811,0.43896447
2066.051,0.43933194
2067.292,0.4395131
2068.534,0.43987839
2069.778,0.44044267
2071.024,0.44090197
2072.271,0.44113149
2073.519,0.44125394
2074.769,0.44159312
2076.02,0.44235499
2077.273,0.44296486
2078.528,0.44307943
2079.784,0.44323142
2081.041,0.44345902
2082.3,0.4437566
2083.56,0.44445684
2084.822,0.44529191
2086.085,0.44575602
2087.35,0.44598587
2088.617,0.44612637
2089.885,0.44636115
2091.154,0.44663154
2092.425,0.44647832
2093.697,0.44645808
2094.971,0.44679914
2096.247,0.44726342
2097.524,0.44806232
2098.803,0.448356
2100.083,0.44800518
2101.364,0.44829768
2102.648,0.44891593
2103.932,0.44937347
2105.219,0.4500183
2106.506,0.45024099
2107.796,0.4500327
2109.087,0.45010911
2110.379,0.45061551
2111.673,0.45121907
2112.969,0.4516868
2114.266,0.45217676
2115.565,0.4524698
2116.865,0.45268598
2118.167,0.45302954
2119.471,0.45312627
2120.776,0.45309991
2122.082,0.45317975
2123.391,0.45339846
2124.7,0.45375322
2126.012,0.45352495
2127.325,0.452814
2128.64,0.4524829
2129.956,0.45260228
2131.274,0.45304654
2132.593,0.45361891
2133.914,0.45396264
2135.237,0.45372343
2136.561,0.45351313
2137.887,0.45364863
2139.214,0.45369229
2140.544,0.45403934
2141.874,0.45456713
2143.207,0.45448168
2144.541,0.45405447
2145.876,0.45391661
2147.214,0.45408373
2148.553,0.45459969
2149.893,0.45496016
2151.235,0.45483643
2152.579,0.45461139
2153.925,0.45429587
2155.272,0.45409814
2156.621,0.45374577
2157.972,0.45298453
2159.324,0.45256943
2160.678,0.45257781
2162.033,0.45264577
2163.39,0.45280382
2164.749,0.45307752
2166.11,0.45315422
2167.472,0.45296798
2168.836,0.45283445
2170.202,0.45264143
2171.569,0.45226124
2172.938,0.4519746
2174.309,0.45186393
2175.682,0.45173359
2177.056,0.45142201
2178.432,0.45094386
2179.809,0.45046494
2181.189,0.45009457
2182.57,0.44980338
2183.952,0.44916787
2185.337,0.44843554
2186.723,0.44802091
2188.111,0.44742705
2189.501,0.44656017
2190.892,0.44595666
2192.285,0.44534406
2193.68,0.44437971
2195.077,0.44367785
2196.476,0.44329315
2197.876,0.44272996
2199.278,0.44193566
2200.682,0.44138407
2202.087,0.44078858
2203.494,0.439743
2204.903,0.43883569
2206.314,0.43792915
2207.727,0.43740113
2209.141,0.43779381
2210.557,0.43835909
2211.975,0.43858101
2213.395,0.43825179
2214.817,0.43751272
2216.24,0.43646993
2217.665,0.43594693
2219.092,0.43627984
2220.521,0.43600367
2221.952,0.43525863
2223.384,0.43455583
2224.818,0.43347661
2226.254,0.43204802
2227.692,0.43055455
2229.132,0.42939152
2230.574,0.42824524
2232.017,0.42654374
2233.462,0.42484978
2234.91,0.42357235
2236.359,0.42213982
2237.809,0.42060465
2239.262,0.41910021
2240.717,0.4176376
2242.173,0.41651066
2243.631,0.41552961
2245.092,0.41462489
2246.554,0.41373867
2248.017,0.41277305
2249.483,0.411785
2250.951,0.41079216
2252.421,0.41002607
2253.892,0.40940588
2255.365,0.40947077
2256.841,0.4102985
2258.318,0.41102982
2259.797,0.41140152
2261.278,0.41115085
2262.761,0.41055848
2264.246,0.4103383
2265.732,0.41016723
2267.221,0.40962028
2268.712,0.40897217
2270.204,0.40866852
2271.699,0.40891766
2273.195,0.40900571
2274.694,0.40869125
2276.194,0.40818186
2277.696,0.4071972
2279.201,0.40572912
2280.707,0.40388382
2282.215,0.40183802
2283.725,0.39971453
2285.237,0.39708008
2286.752,0.39391217
2288.268,0.3908213
2289.786,0.38776524
2291.306,0.38465863
2292.828,0.38206098
2294.352,0.37988936
2295.878,0.37769222
2297.406,0.37570929
2298.936,0.37408949
2300.468,0.37262882
2302.002,0.37144205
2303.539,0.37081151
2305.077,0.37062591
2306.617,0.37049671
2308.159,0.37060983
2309.703,0.37112617
2311.25,0.37186173
2312.798,0.37304754
2314.348,0.37483544
2315.901,0.37668534
2317.455,0.37813618
2319.012,0.3798384
2320.571,0.38213093
2322.131,0.38437779
2323.694,0.38600968
2325.259,0.38734882
2326.826,0.38878763
2328.395,0.38974297
2329.966,0.38978332
2331.54,0.38920818
2333.115,0.38840505
2334.692,0.3873362
2336.272,0.38626908
2337.854,0.38552256
2339.437,0.38460355
2341.023,0.38340864
2342.611,0.38252036
2344.201,0.38186041
2345.794,0.38102088
2347.388,0.3801502
2348.985,0.3793775
2350.583,0.37875786
2352.184,0.37819075
2353.787,0.37714887
2355.393,0.3759891
2357.0,0.37508149
2358.609,0.37393917
2360.221,0.37279068
2361.835,0.37200997
2363.451,0.37135007
2365.069,0.37059049
2366.69,0.37016947
2368.312,0.37035731
2369.937,0.37031739
2371.564,0.36998696
2373.194,0.37011647
2374.825,0.37059797
2376.459,0.37128928
2378.095,0.37199546
2379.733,0.37231665
2381.373,0.37242708
2383.016,0.37300098
2384.661,0.37398031
2386.308,0.37465869
2387.957,0.37531125
2389.609,0.37594437
2391.263,0.37640606
2392.919,0.37677336
2394.577,0.37688861
2396.238,0.37705677
2397.901,0.37731998
2399.566,0.37748291
2401.233,0.3777404
2402.903,0.37787791
2404.575,0.37743413
2406.25,0.37697842
2407.926,0.37692153
2409.606,0.37687999
2411.287,0.37652752
2412.971,0.37576879
2414.657,0.37507398
2416.345,0.37468491
2418.036,0.37412789
2419.729,0.37325514
2421.424,0.37244178
2423.122,0.37174021
2424.822,0.37069211
2426.524,0.36939108
2428.229,0.36830122
2429.936,0.3673594
2431.646,0.36658649
2433.358,0.36568507
2435.072,0.36440402
2436.789,0.36334417
2438.508,0.36273117
2440.229,0.36191848
2441.953,0.3606099
2443.679,0.35946632
2445.408,0.35867763
2447.139,0.35793649
2448.873,0.35696092
2450.609,0.3558268
2452.347,0.35496135
2454.088,0.35403714
2455.831,0.35296567
2457.577,0.3519755
2459.325,0.35103168
2461.076,0.3500604
2462.829,0.34918264
2464.585,0.34849767
2466.343,0.3477305
2468.104,0.34683376
2469.867,0.34588871
2471.632,0.34511215
2473.4,0.34442026
2475.171,0.34366033
2476.944,0.34281306
2478.72,0.34183204
2480.498,0.34091599
2482.278,0.34004511
2484.062,0.339207
2485.847,0.33857021
2487.636,0.33810438
2489.427,0.33750545
2491.22,0.33681369
2493.016,0.33614608
2494.814,0.33551611
2496.615,0.33491548
2498.419,0.33446435
2500.225,0.33422178
2502.034,0.33384537
2503.845,0.33348765
2505.659,0.33315904
2507.476,0.33277836
2509.295,0.33258789
2511.117,0.33256709
2512.942,0.33248938
2514.769,0.33230893
2516.598,0.3320901
2518.431,0.33185303
2520.266,0.33195351
2522.103,0.33223369
2523.944,0.3320617
2525.787,0.33154459
2527.632,0.33111696
2529.48,0.33131444
2531.331,0.33210134
2533.185,0.33250773
2535.041,0.33228735
2536.9,0.33165412
2538.762,0.33099206
2540.627,0.33125435
2542.494,0.33212246
2544.364,0.33187605
2546.236,0.33161501
2548.112,0.33203726
2549.99,0.33245323
2551.87,0.33260403
2553.754,0.3314302
2555.64,0.33000498
2557.529,0.33017323
2559.421,0.3329138
2561.316,0.33689774
2563.213,0.3371201
2565.113,0.33321177
2567.016,0.33123453
2568.922,0.33177782
2570.831,0.3321065
2572.742,0.33272201
2574.656,0.33316343
2576.573,0.33214987
2578.493,0.33053756
2580.416,0.33052475
2582.342,0.33250251
2584.27,0.33266037
2586.201,0.33092489
2588.135,0.32916587
2590.072,0.32660912
2592.012,0.3278589
2593.955,0.33550163
2595.9,0.33332828
2597.849,0.3237981
2599.8,0.32114238
2601.755,0.32306907
2603.712,0.32612199
2605.672,0.32654388
2607.635,0.32298422
2609.601,0.31945366
2611.57,0.31700721
2613.542,0.31628924
2615.517,0.31862988
2617.495,0.32021057
2619.475,0.31844132
2621.459,0.31421624
2623.446,0.31037445
2625.435,0.31018678
2627.428,0.3114915
2629.424,0.31234249
2631.423,0.31081086
2633.424,0.30624918
2635.429,0.3018561
2637.437,0.29866485
2639.447,0.2969456
2641.461,0.29579527
2643.478,0.29460068
2645.498,0.29315653
2647.521,0.29005078
2649.547,0.28749734
2651.576,0.28736102
2653.609,0.28681195
2655.644,0.28377696
2657.682,0.28103773
2659.724,0.27977323
2661.768,0.27802953
2663.816,0.27964859
2665.867,0.28346118
2667.921,0.28116078
2669.978,0.27773137
2672.038,0.26889749
2674.102,0.2618859
2676.168,0.2630281
2678.238,0.25974234
2680.311,0.24747493
2682.387,0.23918292
2684.467,0.23384481
2686.549,0.22569071
2688.635,0.21430704
2690.724,0.20409071
2692.816,0.19869214
2694.911,0.19068019
2697.01,0.17416225
2699.112,0.16214483
2701.217,0.15586646
2703.325,0.14964802
2705.437,0.1457638
2707.552,0.14884402
2709.67,0.15721281
2711.791,0.15418416
2713.916,0.1392547
2716.044,0.1288285
2718.175,0.12925248
2720.31,0.13583683
2722.448,0.12935423
2724.589,0.11592225
2726.734,0.09873271
2728.882,0.08420589
2731.034,0.07638778
2733.188,0.07216856
2735.347,0.06746204
2737.508,0.06294637
2739.673,0.06403687
2741.841,0.0591001
2744.013,0.04794149
2746.188,0.04192495
2748.367,0.03911933
2750.549,0.03745786
2752.734,0.03740648
2754.923,0.0391993
2757.115,0.03727362
2759.311,0.0332727
2761.51,0.03265619
2763.713,0.0329395
2765.919,0.03195455
2768.129,0.03132838
2770.342,0.03075792
2772.559,0.02898634
2774.779,0.02726649
2777.003,0.02674234
2779.23,0.02662695
2781.461,0.02652626
2783.696,0.02624096
2785.934,0.02666455
2788.175,0.0272554
2790.42,0.02558891
2792.669,0.02416087
2794.922,0.02370548
2797.178,0.02325043
2799.437,0.02289559
2801.7,0.02357409
2803.967,0.02460011
2806.238,0.02347899
2808.512,0.02239476
2810.789,0.0224283
2813.071,0.02251015
2815.356,0.02257768
2817.645,0.02286569
2819.937,0.02313944
2822.233,0.02285657
2824.533,0.02229313
2826.837,0.02233505
2829.144,0.022469
2831.455,0.02235095
2833.77,0.02280967
2836.089,0.02316386
2838.411,0.02300554
2840.737,0.0226553
2843.067,0.02216875
2845.401,0.02218787
2847.739,0.02256015
2850.08,0.02289318
2852.425,0.02319143
2854.774,0.02320596
2857.127,0.02304102
2859.484,0.02298457
2861.844,0.02310614
2864.209,0.02323755
2866.577,0.02324295
2868.949,0.02307459
2871.325,0.02271817
2873.705,0.0222025
2876.089,0.02185949
2878.477,0.02206725
2880.869,0.02220608
2883.265,0.02174655
2885.664,0.02147312
2888.068,0.0219249
2890.476,0.02232528
2892.887,0.02171751
2895.303,0.02099493
2897.723,0.02075947
2900.146,0.02080791
2902.574,0.02097809
2905.006,0.02096721
2907.441,0.02062943
2909.881,0.02031525
2912.325,0.02028708
2914.773,0.02061097
2917.225,0.02098671
2919.681,0.02093571
2922.142,0.02059399
2924.606,0.02016637
2927.075,0.0199329
2929.547,0.01999852
2932.024,0.01995828
2934.505,0.01982652
2936.99,0.01995852
2939.479,0.02002717
2941.973,0.01970152
2944.471,0.01963363
2946.973,0.02030348
2949.479,0.02051998
2951.989,0.02019052
2954.504,0.02050414
2957.023,0.02084482
2959.546,0.02019668
2962.073,0.01959925
2964.605,0.01967258
2967.141,0.01987172
2969.681,0.01992574
2972.226,0.02029175
2974.775,0.02106023
2977.328,0.02118579
2979.886,0.02043057
2982.448,0.01995701
2985.015,0.01986126
2987.586,0.01996893
2990.161,0.02060969
2992.74,0.02104447
2995.324,0.02065224
2997.913,0.02036498
3000.506,0.02058038
3003.103,0.02087964
3005.705,0.02071225
3008.312,0.02026475
3010.922,0.02040068
3013.538,0.02092995
3016.158,0.02127776
3018.782,0.02135997
3021.411,0.02133433
3024.044,0.02131943
3026.683,0.02159407
3029.325,0.02257444
3031.972,0.02396061
3034.624,0.02405942
3037.281,0.02287523
3039.942,0.02237244
3042.607,0.02297409
3045.278,0.02349051
3047.953,0.02320468
3050.632,0.0226918
3053.317,0.0227416
3056.006,0.02312562
3058.7,0.02347401
3061.398,0.02393226
3064.101,0.02476453
3066.809,0.02500704
3069.522,0.02423798
3072.239,0.02378116
3074.962,0.0241058
3077.689,0.0245926
3080.421,0.02480079
3083.157,0.02488061
3085.899,0.02534481
3088.645,0.02593473
3091.396,0.02591137
3094.153,0.02560729
3096.914,0.02580265
3099.679,0.026858
3102.45,0.02737124
3105.226,0.02656404
3108.007,0.02617797
3110.792,0.02659239
3113.583,0.02709812
3116.378,0.02729252
3119.179,0.02733844
3121.985,0.02763474
3124.795,0.02802041
3127.611,0.02856646
3130.431,0.02895769
3133.257,0.02913511
3136.088,0.02947071
3138.924,0.02995197
3141.765,0.03059572
3144.611,0.03120891
3147.462,0.03157775
3150.319,0.03200665
3153.18,0.03257721
3156.047,0.03305638
3158.919,0.03352315
3161.796,0.03414475
3164.678,0.03478816
3167.566,0.03538759
3170.458,0.03602203
3173.356,0.03672601
3176.26,0.03763634
3179.168,0.03941943
3182.082,0.0407608
3185.001,0.04034813
3187.926,0.04017749
3190.856,0.04126231
3193.791,0.04274361
3196.731,0.04343256
3199.677,0.04352297
3202.629,0.04423959
3205.585,0.04514739
3208.548,0.04572513
3211.515,0.04745368
3214.488,0.05056993
3217.467,0.05241547
3220.451,0.05187337
3223.441,0.05126843
3226.436,0.0519978
3229.437,0.05238935
3232.443,0.05277844
3235.455,0.0539482
3238.472,0.05464093
3241.495,0.0555222
3244.523,0.05728985
3247.558,0.05888096
3250.598,0.06028969
3253.643,0.06199735
3256.694,0.06365212
3259.751,0.06403321
3262.814,0.06334079
3265.882,0.06390803
3268.956,0.0657286
3272.036,0.06685461
3275.122,0.0671418
3278.213,0.06780415
3281.31,0.06913248
3284.413,0.07070297
3287.522,0.07211589
3290.637,0.07326319
3293.757,0.07507798
3296.884,0.07702733
3300.016,0.07744745
3303.155,0.07799778
3306.299,0.07945427
3309.449,0.08013835
3312.605,0.08083928
3315.767,0.08229657
3318.936,0.08359662
3322.11,0.08492771
3325.29,0.08719253
3328.476,0.08988194
3331.669,0.09072793
3334.867,0.08986056
3338.072,0.08976293
3341.282,0.09080812
3344.499,0.09227853
3347.722,0.09366122
3350.952,0.09490166
3354.187,0.09541135
3357.429,0.09515047
3360.677,0.09573426
3363.931,0.09707818
3367.191,0.09769964
3370.458,0.09755671
3373.731,0.09742912
3377.01,0.09744163
3380.296,0.09811091
3383.588,0.0997086
3386.886,0.10141615
3390.191,0.10263678
3393.502,0.10390762
3396.82,0.10529523
3400.144,0.10595717
3403.475,0.10651702
3406.812,0.10704698
3410.156,0.10649955
3413.506,0.10605641
3416.862,0.10669044
3420.226,0.10846471
3423.596,0.11161346
3426.972,0.11452538
3430.355,0.11694591
3433.745,0.11986329
3437.141,0.12335398
3440.545,0.12753224
3443.954,0.13057933
3447.371,0.13129105
3450.794,0.13214563
3454.224,0.13427446
3457.661,0.1362347
3461.105,0.13807233
3464.556,0.13984604
3468.013,0.14079192
3471.477,0.14150263
3474.948,0.14253716
3478.426,0.14371356
3481.911,0.1448486
3485.403,0.14606234
3488.902,0.14818681
3492.408,0.14996936
3495.921,0.14976193
3499.441,0.14922213
3502.968,0.14990036
3506.502,0.15217799
3510.043,0.15563056
3513.592,0.15931461
3517.147,0.16305142
3520.71,0.16681477
3524.28,0.17022636
3527.857,0.17289667
3531.441,0.1759821
3535.032,0.17920767
3538.631,0.18099776
3542.237,0.1822301
3545.851,0.18377805
3549.471,0.18569831
3553.099,0.18789897
3556.735,0.18990932
3560.378,0.1917431
3564.028,0.19381015
3567.686,0.19613158
3571.351,0.19815197
3575.024,0.19974477
3578.704,0.20140167
3582.392,0.20348365
3586.088,0.20571719
3589.791,0.20752777
3593.501,0.20935128
3597.22,0.21128708
3600.946,0.21254302
3604.679,0.21372953
3608.421,0.21538873
3612.17,0.21725976
3615.926,0.2192605
3619.691,0.220832
3623.463,0.22214575
3627.244,0.2235728
3631.032,0.2249981
3634.828,0.22648743
3638.632,0.22798299
3642.444,0.22953469
3646.263,0.23128269
3650.091,0.23323892
3653.927,0.23493469
3657.771,0.23615246
3661.623,0.23746096
3665.483,0.23911262
3669.351,0.24071924
3673.227,0.24216137
3677.111,0.24392899
3681.004,0.24605088
3684.905,0.24772776
3688.814,0.24900063
3692.731,0.25048286
3696.656,0.25200652
3700.59,0.25359298
3704.532,0.25532215
3708.483,0.25690201
3712.442,0.25843653
3716.409,0.26004277
3720.385,0.26160289
3724.37,0.26314932
3728.362,0.26467153
3732.364,0.26609874
3736.374,0.2676031
3740.392,0.26948852
3744.419,0.27143612
3748.455,0.27304292
3752.499,0.27440006
3756.553,0.27561093
3760.614,0.27691355
3764.685,0.27838785
3768.764,0.28006682
3772.853,0.2818175
3776.95,0.28326648
3781.056,0.28466362
3785.17,0.28626438
3789.294,0.28777142
3793.427,0.28909187
3797.568,0.29039198
3801.719,0.29170549
3805.879,0.29304165
3810.048,0.29434102
3814.225,0.29562344
3818.412,0.29704135
3822.609,0.298526
3826.814,0.29989827
3831.029,0.30112193
3835.252,0.30237678
3839.486,0.30369554
3843.728,0.30485754
3847.98,0.30591955
3852.241,0.3069778
3856.512,0.3080458
3860.792,0.30914047
3865.081,0.31012401
3869.38,0.3110811
3873.689,0.31207227
3878.007,0.31304649
3882.334,0.31413635
3886.672,0.31526962
3891.019,0.31623759
3895.375,0.31720306
3899.742,0.31833977
3904.118,0.31935852
3908.504,0.32013265
3912.9,0.32099526
3917.305,0.32189461
3921.721,0.32253018
3926.146,0.32317513
3930.581,0.32413152
3935.027,0.32506225
3939.482,0.32574068
3943.948,0.32660342
3948.423,0.32765157
3952.909,0.32849244
3957.405,0.32928493
3961.911,0.33023899
3966.427,0.331149
3970.954,0.33195716
3975.491,0.33278053
3980.038,0.3335853
3984.595,0.3343369
3989.163,0.33505984
3993.742,0.33572526
3998.33,0.33630747
4002.93,0.33692345
4007.54,0.33751004
4012.16,0.33793003
4016.791,0.33842415
4021.433,0.3390062
4026.086,0.33941919
4030.749,0.33982713
4035.423,0.34034802
4040.108,0.34101114
4044.804,0.34173481
4049.51,0.34237374
4054.228,0.34300886
4058.956,0.34366952
4063.695,0.34447345
4068.446,0.34537673
4073.207,0.34599485
4077.98,0.34635695
4082.764,0.34689223
4087.559,0.34765975
4092.365,0.34840777
4097.183,0.34903358
4102.012,0.34985195
4106.852,0.35079139
4111.703,0.35154492
4116.566,0.3524313
4121.441,0.35341121
4126.327,0.35429964
4131.224,0.35526506
4136.133,0.35621381
4141.054,0.35720549
4145.987,0.35830195
4150.931,0.35928037
4155.887,0.36027414
4160.854,0.36130213
4165.834,0.36212138
4170.826,0.36297016
4175.829,0.3638889
4180.844,0.36490062
4185.872,0.36626826
4190.911,0.36825952
4195.963,0.37208767
4201.026,0.37925597
4206.102,0.39044826
4211.19,0.40514054
4216.291,0.42179028
4221.404,0.43852108
4226.529,0.45371782
4231.666,0.46539974
4236.816,0.4716473
4241.979,0.47111806
4247.154,0.46190487
4252.341,0.4417692
4257.542,0.42623036
4262.754,0.43151403
4267.98,0.44845265
4273.219,0.45648415
4278.47,0.45716175
4283.734,0.4570292
4289.011,0.45738085
4294.301,0.45599728
4299.604,0.45257419
4304.92,0.44989887
4310.25,0.44622533
4315.592,0.43993468
4320.948,0.43391876
4326.317,0.42996295
4331.699,0.42648187
4337.095,0.42310782
4342.504,0.42068781
4347.926,0.41928589
4353.362,0.41851435
4358.811,0.41819025
4364.275,0.41835533
4369.751,0.41868073
4375.242,0.41900987
4380.746,0.4200106
4386.264,0.42186748
4391.796,0.42369328
4397.342,0.42526152
4402.902,0.4270529
4408.476,0.4288371
4414.064,0.43028283
4419.666,0.43163811
4425.282,0.4330116
4430.913,0.4344254
4436.558,0.43592605
4442.217,0.43737489
4447.891,0.43870484
4453.579,0.44012557
4459.281,0.4415233
4464.998,0.44272875
4470.73,0.44398145
4476.477,0.44527478
4482.238,0.44650474
4488.014,0.44777224
4493.805,0.44921607
4499.611,0.45067291
4505.431,0.45165176
4511.267,0.45252205
4517.118,0.45405555
4522.984,0.45569508
4528.865,0.45724136
4534.762,0.45905695
4540.674,0.46049856
4546.601,0.46133282
4552.543,0.46243558
4558.502,0.46408354
4564.475,0.46556695
4570.465,0.46703343
4576.47,0.46866948
4582.491,0.47014189
4588.527,0.47167548
4594.58,0.47317567
4600.648,0.4744151
4606.732,0.47558316
4612.833,0.47703579
4618.949,0.47861875
4625.082,0.48019738
4631.231,0.48183978
4637.397,0.48335356
4643.578,0.48474102
4649.777,0.48608038
4655.991,0.48763514
4662.223,0.48942011
4668.471,0.49104697
4674.735,0.49268963
4681.017,0.49474816
4687.315,0.49649896
4693.63,0.49767776
4699.962,0.4994692
4706.312,0.5015047
4712.678,0.50319884
4719.062,0.50505284
4725.463,0.5068493
4731.881,0.5083002
4738.316,0.50970826
4744.769,0.51137257
4751.24,0.51327603
4757.728,0.51508797
4764.234,0.51672494
4770.758,0.5187893
4777.299,0.52119785
4783.859,0.52319633
4790.436,0.52462599
4797.032,0.52550787
4803.645,0.52613748
4810.277,0.52728364
4816.927,0.52898124
4823.596,0.53065264
4830.283,0.53222235
4836.988,0.53456443
4843.712,0.53677104
4850.455,0.53765111
4857.216,0.53857524
4863.996,0.53991828
4870.795,0.54134751
4877.613,0.54290061
4884.451,0.54440409
4891.307,0.54621242
4898.182,0.54792978
4905.077,0.54864488
4911.991,0.54910855
4918.925,0.54994144
4925.878,0.55104288
4932.851,0.55255849
4939.844,0.55402766
4946.856,0.55602321
4953.888,0.55923256
4960.941,0.5604305
4968.013,0.55932495
4975.105,0.55960527
4982.218,0.56083865
4989.351,0.56189498
4996.504,0.56336429
5003.678,0.56468546
5010.872,0.56760886
5018.087,0.57277075
5025.323,0.57419312
5032.58,0.57220164
5039.857,0.5718056
5047.156,0.57288037
5054.475,0.57436543
5061.816,0.576086
5069.179,0.57801012
5076.562,0.58190786
5083.967,0.58559495
5091.394,0.58523334
5098.842,0.58494082
5106.312,0.58668411
5113.804,0.58827545
5121.318,0.58924773
5128.854,0.59042023
5136.412,0.59465612
5143.992,0.60170786
5151.595,0.60203138
5159.22,0.59712615
5166.868,0.59666617
5174.538,0.59832666
5182.231,0.59899444
5189.947,0.60221091
5197.686,0.60832912
5205.448,0.61339806
5213.233,0.61495837
5221.041,0.61004781
5228.873,0.60774038
5236.728,0.61059878
5244.607,0.60958761
5252.51,0.6076823
5260.436,0.60791164
5268.386,0.61031069
5276.36,0.61309594
5284.358,0.61662122
5292.381,0.61968768
5300.428,0.61659795
5308.499,0.61378053
5316.595,0.61455878
5324.715,0.61553263
5332.86,0.61690678
5341.031,0.62727816
5349.226,0.64200299
5357.446,0.63723968
5365.692,0.62609869
5373.962,0.62559919
5382.259,0.62746723
5390.581,0.62849136
5398.928,0.63135693
5407.302,0.64010948
5415.701,0.65780938
5424.127,0.66480877
5432.579,0.65297689
5441.057,0.64905689
5449.561,0.65578678
5458.092,0.67077087
5466.65,0.68804585
5475.234,0.69181315
5483.846,0.68992573
5492.484,0.68922959
5501.15,0.69815952
5509.843,0.71644656
5518.564,0.74315163
5527.312,0.77073252
5536.087,0.80318081
5544.891,0.87854947
5553.723,0.95370222
5562.582,0.89372416
5571.47,0.65786112
5580.387,0.48443256
5589.332,0.44980694
5598.305,0.45801292
5607.307,0.477538
5616.339,0.49939103
5625.399,0.5173337
5634.489,0.53574711
5643.607,0.55130108
5652.756,0.55574289
5661.934,0.55808948
5671.142,0.56757008
5680.379,0.57631842
5689.647,0.57839093
5698.945,0.582367
5708.274,0.59396106
5717.633,0.60163683
5727.022,0.60117454
5736.443,0.60289432
5745.894,0.60556954
5755.377,0.61376904
5764.89,0.62568931
5774.436,0.62029554
5784.012,0.60919167
5793.621,0.60648381
5803.262,0.61214525
5812.934,0.63085086
5822.639,0.64534153
5832.376,0.63373164
5842.146,0.6230672
5851.948,0.62964994
5861.783,0.64194587
5871.652,0.6562943
5881.553,0.66905466
5891.488,0.66252382
5901.457,0.64447586
5911.459,0.63752554
5921.495,0.6495398
5931.565,0.67119826
5941.67,0.667571
5951.809,0.6520662
5961.982,0.65525166
5972.19,0.66370917
5982.433,0.66909811
5992.711,0.66349437
6003.025,0.65678021
6013.374,0.65816355
6023.759,0.65453411
6034.179,0.67093556
6044.636,0.69773431
6055.129,0.69232265
6065.658,0.68908272
6076.224,0.68095964
6086.826,0.66507252
6097.466,0.67513158
6108.143,0.69401887
6118.857,0.6839764
6129.609,0.67227534
6140.398,0.67875869
6151.226,0.68648498
6162.091,0.68600258
6172.996,0.6900001
6183.938,0.694846
6194.92,0.68685814
6205.94,0.6847043
6217.0,0.68792337
6228.099,0.6886451
6239.237,0.68996025
6250.416,0.69116258
6261.635,0.69365709
6272.893,0.69564794
6284.193,0.69638829
6295.533,0.6975283
6306.914,0.69895129
6318.336,0.70220906
6329.799,0.71528479
6341.304,0.72491062
6352.851,0.72207392
6364.44,0.72639263
6376.071,0.7265878
6387.745,0.72524316
6399.461,0.74812646
6411.221,0.77186264
6423.023,0.75597329
6434.869,0.73903176
6446.759,0.73582005
6458.693,0.74069896
6470.671,0.76023044
6482.693,0.78047336
6494.76,0.76994507
6506.872,0.75618421
6519.029,0.75482342
6531.231,0.75311802
6543.48,0.75998107
6555.774,0.77342061
6568.114,0.78110512
6580.501,0.77921461
6592.934,0.77207335
6605.415,0.76925095
6617.943,0.78463469
6630.518,0.79719814
6643.141,0.77502337
6655.812,0.76320792
6668.532,0.77138106
6681.3,0.76937606
6694.117,0.76943266
6706.983,0.77921424
6719.899,0.77321161
6732.864,0.76164443
6745.879,0.76090052
6758.945,0.768296
6772.062,0.78302192
6785.229,0.7866527
6798.448,0.77273045
6811.718,0.76983788
6825.039,0.77220276
6838.413,0.77778039
6851.84,0.79518798
6865.319,0.79030194
6878.851,0.77372945
6892.437,0.77242977
6906.076,0.77204217
6919.769,0.767264
6933.517,0.77046171
6947.319,0.78290341
6961.176,0.784352
6975.089,0.77831895
6989.057,0.77803961
7003.081,0.77841218
7017.161,0.78225476
7031.298,0.7922664
7045.492,0.79398602
7059.743,0.78413469
7074.052,0.7797286
7088.419,0.78179103
7102.845,0.78533127
7117.329,0.78786077
7131.872,0.79228646
7146.475,0.80002288
7161.137,0.80065806
7175.86,0.79554589
7190.643,0.79716634
7205.487,0.79909044
7220.393,0.7956454
7235.36,0.79564519
7250.39,0.80047193
7265.481,0.80541206
7280.636,0.8047972
7295.854,0.80234509
7311.135,0.8049662
7326.481,0.81051813
7341.891,0.81006714
7357.366,0.80625951
7372.906,0.80592423
7388.512,0.80679436
7404.184,0.80774618
7419.922,0.80838129
7435.728,0.81155401
7451.601,0.81744584
7467.541,0.81791229
7483.55,0.8141541
7499.628,0.81316548
7515.774,0.81410363
7531.99,0.81512955
7548.277,0.81699836
7564.633,0.81961408
7581.061,0.8211701
7597.56,0.8216764
7614.131,0.82186088
7630.774,0.82202811
7647.491,0.82266757
7664.28,0.82334251
7681.143,0.82409107
7698.08,0.82500915
7715.093,0.8257452
7732.18,0.82661021
7749.343,0.8275436
7766.583,0.82787248
7783.899,0.82815024
7801.292,0.82890429
7818.764,0.82967353
7836.313,0.83067542
7853.942,0.8320218
7871.649,0.83297251
7889.437,0.83374015
7907.305,0.83501208
7925.254,0.83628671
7943.285,0.83700263
7961.398,0.83758313
7979.594,0.83842262
7997.872,0.83953535
8016.235,0.8406226
8034.682,0.84134234
8053.214,0.84211895
8071.832,0.84317368
8090.535,0.8441504
8109.326,0.84511481
8128.204,0.84596418
8147.169,0.84653728
8166.224,0.84706142
8185.368,0.84756568
8204.601,0.84794189
8223.925,0.84824001
8243.34,0.84854287
8262.847,0.84878963
8282.446,0.84905614
8302.139,0.84956525
8321.925,0.85019721
8341.805,0.85070684
8361.781,0.85121974
8381.852,0.85186247
8402.02,0.85256492
8422.285,0.85303726
8442.648,0.85316147
8463.109,0.85338622
8483.67,0.85392578
8504.331,0.85437812
8525.092,0.85462973
8545.955,0.85497994
8566.921,0.85530982
8587.989,0.85567313
8609.161,0.85625786
8630.437,0.85693044
8651.819,0.8575436
8673.307,0.85791666
8694.902,0.85832239
8716.604,0.85883571
8738.415,0.85918704
8760.335,0.85952449
8782.365,0.86004423
8804.507,0.86071183
8826.76,0.86126772
8849.125,0.86165745
8871.604,0.86211574
8894.198,0.86267429
8916.907,0.86321588
8939.732,0.86355571
8962.673,0.8637224
8985.733,0.86400627
9008.912,0.86442504
9032.21,0.86488475
9055.629,0.86516903
9079.17,0.86526776
9102.833,0.86552841
9126.62,0.86589051
9150.531,0.86604234
9174.568,0.86619188
9198.731,0.86641609
9223.022,0.86642608
9247.441,0.8664913
9271.99,0.86675931
9296.669,0.86703724
9321.48,0.86724608
9346.423,0.86750311
9371.5,0.86794088
9396.712,0.86845144
9422.06,0.86897474
9447.545,0.86955454
9473.167,0.87012328
9498.929,0.87056634
9524.832,0.87099436
9550.876,0.8714666
9577.062,0.87187874
9603.393,0.87225255
9629.868,0.87274229
9656.49,0.87326444
9683.259,0.8737121
9710.176,0.87421943
9737.244,0.87476653
9764.463,0.87528903
9791.834,0.87588973
9819.359,0.87664078
9847.039,0.87733978
9874.875,0.87783853
9902.869,0.87820203
9931.022,0.87850567
9959.336,0.87887385
9987.811,0.87935329
10016.449,0.87982923
10045.252,0.88026977
10074.221,0.88068789
10103.357,0.88098845
10132.662,0.88132894
10162.137,0.88185888
10191.784,0.8823684
10221.604,0.88272783
10251.6,0.88299909
10281.771,0.88340563
10312.121,0.88400072
10342.65,0.88445486
10373.36,0.88476124
10404.253,0.8851341
10435.331,0.88545075
10466.594,0.88576122
10498.045,0.88613592
10529.686,0.88641043
10561.517,0.8867635
10593.542,0.88714725
10625.761,0.88734214
10658.176,0.8875707
10690.79,0.88784026
10723.604,0.8879029
10756.619,0.8876811
10789.839,0.88741578
10823.264,0.88726052
10856.896,0.88692681
10890.738,0.88644614
10924.791,0.88610248
10959.058,0.88580552
10993.541,0.88553248
11028.24,0.88521944
11063.16,0.88482776
11098.301,0.88463334
11133.665,0.88458514
11169.256,0.88444481
11205.075,0.884332
11241.124,0.88429842
11277.405,0.88430377
11313.921,0.88444038
11350.675,0.8847259
11387.667,0.88518134
11424.901,0.88552856
11462.38,0.88568732
11500.105,0.88594932
11538.079,0.88639883
11576.304,0.88680943
11614.783,0.88685796
11653.518,0.88679832
11692.513,0.88701394
11731.769,0.88729371
11771.29,0.88737292
11811.077,0.88742939
11851.134,0.88766182
11891.464,0.88775278
11932.068,0.88777623
11972.951,0.88820489
12014.114,0.88856241
12055.562,0.88842793
12097.296,0.88793646
12139.32,0.88722748
12181.636,0.88661852
12224.249,0.88665376
12267.16,0.88726935
12310.373,0.88776753
12353.892,0.88809249
12397.719,0.8882583
12441.859,0.88823124
12486.313,0.88827698
12531.086,0.88840452
12576.18,0.88848504
12621.601,0.88843552
12667.35,0.88852691
12713.432,0.88870732
12759.85,0.88871574
12806.608,0.88894035
12853.71,0.88929316
12901.159,0.88950864
12948.96,0.88930897
12997.116,0.88874168
13045.631,0.88847116
13094.51,0.88859985
13143.756,0.88860221
13193.373,0.88816596
13243.366,0.88792369
13293.74,0.88803842
13344.497,0.88811682
13395.644,0.88818399
13447.183,0.88838292
13499.121,0.88854573
13551.461,0.88826235
13604.208,0.8880925
13657.367,0.88827762
13710.943,0.88823757
13764.941,0.88801438
13819.365,0.88767488
13874.221,0.88693071
13929.515,0.88607667
13985.25,0.885314
14041.433,0.88455732
14098.068,0.88384409
14155.163,0.88254012
14212.721,0.88085791
14270.749,0.87900837
14329.252,0.87660694
14388.237,0.87402218
14447.709,0.87164957
14507.674,0.86910103
14568.139,0.86541417
14629.109,0.86061843
14690.592,0.85502223
14752.594,0.84819405
14815.121,0.84030087
14878.179,0.83385602
14941.777,0.82549642
15005.92,0.81058058
15070.616,0.79423601
15135.871,0.77622139
15201.695,0.7536653
15268.092,0.72545695
15335.072,0.69146969
15402.642,0.655955
15470.81,0.6201747
15539.583,0.5800986
15608.97,0.53828228
15678.979,0.49833487
15749.619,0.45850213
15820.897,0.42332191
15892.824,0.39455906
15965.407,0.36571251
