Database of Origin,University of Winnipeg Spectrophotometer Facility
Sample Description,Carbonates and Oxolates -  D&P Spectra Reflectance spectra
Other Information,"Designs and Prototypes 102F spectra/Relative to infragold 1"" disk/Reflectance only"
Date Added,2018-08-06 21:11:30.663821

Data ID,FTIR_CARB_39_12     
Sample ID,SYN009
Mineral Name,Sodium Carbonate
Locality,Alfa Aesar stock #11552
Grain Size,<45 um
Viewing Geometry,i=35/ e=0
Resolution,~3 cm-1
Formula,Na2CO3
Composition,synthetic. Anhydrous

Wavelength
2.001142,0.63727305
2.002307,0.63944845
2.003474,0.63687537
2.004643,0.63794036
2.005812,0.63802558
2.006983,0.63836388
2.008155,0.63728721
2.009329,0.63782254
2.010504,0.63975605
2.01168,0.63937046
2.012858,0.63914934
2.014037,0.64197478
2.015217,0.64237027
2.016399,0.64285874
2.017582,0.64201889
2.018766,0.64227266
2.019952,0.64112027
2.021139,0.64181416
2.022328,0.63981556
2.023518,0.6404912
2.024709,0.63952888
2.025902,0.63851247
2.027096,0.63941273
2.028291,0.6392315
2.029488,0.63915061
2.030686,0.6387578
2.031886,0.6397797
2.033087,0.63946111
2.034289,0.63943345
2.035493,0.64068412
2.036698,0.63924895
2.037905,0.64014362
2.039113,0.63868224
2.040322,0.63989225
2.041533,0.6395459
2.042746,0.63955703
2.043959,0.63842496
2.045174,0.64022162
2.046391,0.63849967
2.047609,0.63898065
2.048828,0.63901739
2.050049,0.63741575
2.051271,0.63856646
2.052495,0.63803963
2.05372,0.63670673
2.054947,0.63754416
2.056175,0.63766769
2.057404,0.63851697
2.058635,0.63830859
2.059867,0.63828297
2.061101,0.63798853
2.062336,0.63783088
2.063573,0.63910655
2.064811,0.63771178
2.066051,0.63862487
2.067292,0.63956432
2.068534,0.63838525
2.069778,0.638459
2.071024,0.63909139
2.072271,0.63968912
2.073519,0.6392279
2.074769,0.63892079
2.07602,0.63980607
2.077273,0.63976274
2.078528,0.63968869
2.079784,0.64050891
2.081041,0.63896313
2.0823,0.64122699
2.08356,0.63991547
2.084822,0.64156227
2.086085,0.63971057
2.08735,0.64094968
2.088617,0.64110577
2.089885,0.64363303
2.091154,0.64150249
2.092425,0.64225341
2.093697,0.64266916
2.094971,0.64260779
2.096247,0.64291135
2.097524,0.64297466
2.098803,0.64302205
2.100083,0.64594259
2.101364,0.64352027
2.102648,0.64662692
2.103932,0.64552844
2.105219,0.64730952
2.106506,0.64817897
2.107796,0.64741013
2.109087,0.6480238
2.110379,0.64969365
2.111673,0.64851678
2.112969,0.6513151
2.114266,0.64976264
2.115565,0.65105712
2.116865,0.64933492
2.118167,0.65113006
2.119471,0.6500015
2.120776,0.65099076
2.122082,0.64994357
2.123391,0.6502753
2.1247,0.64949492
2.126012,0.65014009
2.127325,0.64747667
2.12864,0.64883004
2.129956,0.6485435
2.131274,0.65041198
2.132593,0.65000137
2.133914,0.65083231
2.135237,0.64853193
2.136561,0.64980154
2.137887,0.64909674
2.139214,0.64922543
2.140544,0.65012235
2.141874,0.64976552
2.143207,0.65049356
2.144541,0.64920881
2.145876,0.64957894
2.147214,0.64849108
2.148553,0.64971466
2.149893,0.64922132
2.151235,0.64834611
2.152579,0.64895241
2.153925,0.64703252
2.155272,0.64819289
2.156621,0.64769398
2.157972,0.64705852
2.159324,0.64749773
2.160678,0.6465828
2.162033,0.64596487
2.16339,0.64574805
2.164749,0.64487614
2.16611,0.64599017
2.167472,0.64344969
2.168836,0.64545823
2.170202,0.64431962
2.171569,0.64413843
2.172938,0.64427176
2.174309,0.64382222
2.175682,0.64408189
2.177056,0.64345545
2.178432,0.6451926
2.179809,0.64494975
2.181189,0.64487028
2.18257,0.64529792
2.183952,0.64495417
2.185337,0.64468365
2.186723,0.64531507
2.188111,0.64444245
2.189501,0.64609214
2.190892,0.6466718
2.192285,0.64750847
2.19368,0.64501503
2.195077,0.64492456
2.196476,0.64710089
2.197876,0.64790937
2.199278,0.64690812
2.200682,0.64681209
2.202087,0.64707278
2.203494,0.64753362
2.204903,0.64835026
2.206314,0.64843109
2.207727,0.64806569
2.209141,0.64845765
2.210557,0.64939218
2.211975,0.64822034
2.213395,0.64880607
2.214817,0.64893441
2.21624,0.6488935
2.217665,0.64987231
2.219092,0.64976215
2.220521,0.64952424
2.221952,0.64908754
2.223384,0.65014686
2.224818,0.65021222
2.226254,0.65026248
2.227692,0.65040193
2.229132,0.65100156
2.230574,0.6503109
2.232017,0.64880738
2.233462,0.65014398
2.23491,0.64952983
2.236359,0.64925203
2.237809,0.64997773
2.239262,0.64898435
2.240717,0.64955936
2.242173,0.64811794
2.243631,0.64968924
2.245092,0.64837518
2.246554,0.64782149
2.248017,0.64800728
2.249483,0.64738542
2.250951,0.64792254
2.252421,0.64697538
2.253892,0.64712005
2.255365,0.64683653
2.256841,0.64541791
2.258318,0.64480821
2.259797,0.64589795
2.261278,0.64389095
2.262761,0.6418012
2.264246,0.64221255
2.265732,0.64111318
2.267221,0.64097517
2.268712,0.64018313
2.270204,0.63926711
2.271699,0.63749414
2.273195,0.6363734
2.274694,0.63585648
2.276194,0.63381877
2.277696,0.63260501
2.279201,0.63297255
2.280707,0.63151576
2.282215,0.63090252
2.283725,0.62948421
2.285237,0.6280571
2.286752,0.62654986
2.288268,0.62508719
2.289786,0.62512768
2.291306,0.62412093
2.292828,0.62377596
2.294352,0.62345033
2.295878,0.62254015
2.297406,0.6233462
2.298936,0.62031569
2.300468,0.62015823
2.302002,0.61986716
2.303539,0.62050151
2.305077,0.61935362
2.306617,0.62006749
2.308159,0.61811518
2.309703,0.61762369
2.31125,0.61696348
2.312798,0.61609037
2.314348,0.61623296
2.315901,0.6155353
2.317455,0.61297793
2.319012,0.61317624
2.320571,0.61212843
2.322131,0.61202097
2.323694,0.61085948
2.325259,0.6090256
2.326826,0.60865776
2.328395,0.60599673
2.329966,0.60442493
2.33154,0.60314138
2.333115,0.60105358
2.334692,0.59921768
2.336272,0.59705935
2.337854,0.5964427
2.339437,0.59450789
2.341023,0.59156689
2.342611,0.59083227
2.344201,0.58946319
2.345794,0.58755235
2.347388,0.58608535
2.348985,0.58515258
2.350583,0.58469467
2.352184,0.58394613
2.353787,0.58497816
2.355393,0.5864086
2.357,0.58911928
2.358609,0.59107759
2.360221,0.59500565
2.361835,0.59807021
2.363451,0.60155247
2.365069,0.60519834
2.36669,0.60845377
2.368312,0.61198017
2.369937,0.61366334
2.371564,0.61640846
2.373194,0.61882459
2.374825,0.62043092
2.376459,0.62077352
2.378095,0.62312009
2.379733,0.62249044
2.381373,0.62438431
2.383016,0.62316838
2.384661,0.62406306
2.386308,0.62381957
2.387957,0.62525024
2.389609,0.62452368
2.391263,0.62536687
2.392919,0.62406559
2.394577,0.62525196
2.396238,0.62484488
2.397901,0.62393753
2.399566,0.62328726
2.401233,0.62301204
2.402903,0.62185615
2.404575,0.62025708
2.40625,0.62081551
2.407926,0.62007417
2.409606,0.61825854
2.411287,0.61779162
2.412971,0.61620141
2.414657,0.6149851
2.416345,0.61338745
2.418036,0.61285268
2.419729,0.61198915
2.421424,0.61086385
2.423122,0.61009607
2.424822,0.60810471
2.426524,0.60661933
2.428229,0.60591625
2.429936,0.60393719
2.431646,0.60308624
2.433358,0.60297576
2.435072,0.6017766
2.436789,0.60210086
2.438508,0.60102312
2.440229,0.60098534
2.441953,0.60024536
2.443679,0.60104685
2.445408,0.59958632
2.447139,0.59813979
2.448873,0.59810308
2.450609,0.59883821
2.452347,0.59710397
2.454088,0.59723661
2.455831,0.595514
2.457577,0.59381265
2.459325,0.59393272
2.461076,0.59285883
2.462829,0.59116128
2.464585,0.59089137
2.466343,0.58853975
2.468104,0.58818817
2.469867,0.58591357
2.471632,0.58414069
2.4734,0.58310058
2.475171,0.58154494
2.476944,0.57918968
2.47872,0.57794016
2.480498,0.57543545
2.482278,0.57399597
2.484062,0.57232538
2.485847,0.57187692
2.487636,0.57109727
2.489427,0.56937168
2.49122,0.5691962
2.493016,0.56688862
2.494814,0.56705493
2.496615,0.56603189
2.498419,0.5672544
2.500225,0.56620536
2.502034,0.56653409
2.503845,0.56654679
2.505659,0.56561823
2.507476,0.56575821
2.509295,0.56532273
2.511117,0.56554902
2.512942,0.56495707
2.514769,0.56387506
2.516598,0.56335882
2.518431,0.56303134
2.520266,0.56095673
2.522103,0.55972399
2.523944,0.55733619
2.525787,0.55551806
2.527632,0.55351591
2.52948,0.55259333
2.531331,0.55014887
2.533185,0.54763934
2.535041,0.5454739
2.5369,0.54328756
2.538762,0.54034565
2.540627,0.53842209
2.542494,0.53764397
2.544364,0.53477226
2.546236,0.53457037
2.548112,0.53201889
2.54999,0.5316421
2.55187,0.53524571
2.553754,0.53505441
2.55564,0.53897311
2.557529,0.54113115
2.559421,0.54636919
2.561316,0.55297515
2.563213,0.56071901
2.565113,0.56756773
2.567016,0.57492887
2.568922,0.58330965
2.570831,0.58871854
2.572742,0.59490409
2.574656,0.59722156
2.576573,0.60086175
2.578493,0.60134428
2.580416,0.60489738
2.582342,0.60743835
2.58427,0.60791237
2.586201,0.60738306
2.588135,0.60981032
2.590072,0.60731708
2.592012,0.60981821
2.593955,0.6184917
2.5959,0.61419735
2.597849,0.61139511
2.5998,0.61432297
2.601755,0.61369952
2.603712,0.61921948
2.605672,0.61832571
2.607635,0.61769289
2.609601,0.61773021
2.61157,0.61810757
2.613542,0.617079
2.615517,0.62111921
2.617495,0.61857061
2.619475,0.61873888
2.621459,0.61652475
2.623446,0.61589234
2.625435,0.61884001
2.627428,0.61674768
2.629424,0.62154378
2.631423,0.6177949
2.633424,0.61785388
2.635429,0.61540704
2.637437,0.61619628
2.639447,0.61559604
2.641461,0.61631106
2.643478,0.61497594
2.645498,0.61621109
2.647521,0.61401356
2.649547,0.61366745
2.651576,0.61495
2.653609,0.61445724
2.655644,0.61231788
2.657682,0.61166946
2.659724,0.61243079
2.661768,0.60971717
2.663816,0.61281518
2.665867,0.61578786
2.667921,0.60839795
2.669978,0.61489376
2.672038,0.60502377
2.674102,0.60712632
2.676168,0.60826457
2.678238,0.60741236
2.680311,0.60211228
2.682387,0.60111892
2.684467,0.59992508
2.686549,0.59921026
2.688635,0.59681388
2.690724,0.595281
2.692816,0.59665133
2.694911,0.59544239
2.69701,0.58807712
2.699112,0.58713758
2.701217,0.58578675
2.703325,0.58179507
2.705437,0.58030868
2.707552,0.57874587
2.70967,0.58075676
2.711791,0.57661296
2.713916,0.56983014
2.716044,0.56845217
2.718175,0.56672861
2.72031,0.57104509
2.722448,0.55937969
2.724589,0.55980617
2.726734,0.54887041
2.728882,0.5462063
2.731034,0.53891502
2.733188,0.53804649
2.735347,0.53218223
2.737508,0.52994555
2.739673,0.52974841
2.741841,0.52250416
2.744013,0.51377303
2.746188,0.51067769
2.748367,0.50573904
2.750549,0.50279468
2.752734,0.49595149
2.754923,0.4968129
2.757115,0.48612404
2.759311,0.48197122
2.76151,0.47654888
2.763713,0.47295116
2.765919,0.4657815
2.768129,0.46311626
2.770342,0.45520098
2.772559,0.45044948
2.774779,0.4439922
2.777003,0.43989149
2.77923,0.43244308
2.781461,0.42758209
2.783696,0.41875237
2.785934,0.416548
2.788175,0.40596415
2.79042,0.40037741
2.792669,0.39196246
2.794922,0.38677816
2.797178,0.37915198
2.799437,0.37332251
2.8017,0.36464497
2.803967,0.35625512
2.806238,0.3466112
2.808512,0.34268759
2.810789,0.33658705
2.813071,0.33647252
2.815356,0.33144252
2.817645,0.33040476
2.819937,0.32412415
2.822233,0.3203908
2.824533,0.31208892
2.826837,0.30917385
2.829144,0.30089808
2.831455,0.29646947
2.83377,0.28909635
2.836089,0.28478278
2.838411,0.27580152
2.840737,0.27236222
2.843067,0.2652869
2.845401,0.26253169
2.847739,0.25309473
2.85008,0.24902547
2.852425,0.24193869
2.854774,0.23800494
2.857127,0.23002239
2.859484,0.22672197
2.861844,0.21885666
2.864209,0.21589231
2.866577,0.20857139
2.868949,0.2057778
2.871325,0.19759677
2.873705,0.19444478
2.876089,0.18884045
2.878477,0.18526695
2.880869,0.18020196
2.883265,0.1780746
2.885664,0.17057442
2.888068,0.17019199
2.890476,0.1655822
2.892887,0.16345587
2.895303,0.15708831
2.897723,0.15620088
2.900146,0.15049891
2.902574,0.14978163
2.905006,0.14488213
2.907441,0.14522299
2.909881,0.14088688
2.912325,0.14002535
2.914773,0.1360705
2.917225,0.13804375
2.919681,0.13346371
2.922142,0.13216946
2.924606,0.12832945
2.927075,0.12783622
2.929547,0.12434432
2.932024,0.12462282
2.934505,0.12087708
2.93699,0.12225523
2.939479,0.11952716
2.941973,0.11969048
2.944471,0.11530896
2.946973,0.119316
2.949479,0.11762661
2.951989,0.11465818
2.954504,0.11491908
2.957023,0.11634453
2.959546,0.11147527
2.962073,0.11275087
2.964605,0.11056623
2.967141,0.11108283
2.969681,0.11000388
2.972226,0.11002514
2.974775,0.11090692
2.977328,0.11251178
2.979886,0.10764315
2.982448,0.10825193
2.985015,0.10717743
2.987586,0.10772984
2.990161,0.10568953
2.99274,0.1082739
2.995324,0.104373
2.997913,0.10629078
3.000506,0.10427096
3.003103,0.10709458
3.005705,0.10345569
3.008312,0.10336499
3.010922,0.10152803
3.013538,0.10263639
3.016158,0.10127299
3.018782,0.1005935
3.021411,0.09876725
3.024044,0.0990274
3.026683,0.09736565
3.029325,0.09853225
3.031972,0.1010309
3.034624,0.10045503
3.037281,0.09512342
3.039942,0.09595987
3.042607,0.09481771
3.045278,0.09728587
3.047953,0.09512233
3.050632,0.09387456
3.053317,0.09267698
3.056006,0.09308257
3.0587,0.09278549
3.061398,0.09325598
3.064101,0.09450328
3.066809,0.09586441
3.069522,0.09312918
3.072239,0.0936786
3.074962,0.0920887
3.077689,0.09334492
3.080421,0.09367537
3.083157,0.09418391
3.085899,0.09308072
3.088645,0.09550894
3.091396,0.09302304
3.094153,0.09432246
3.096914,0.09234529
3.099679,0.09528888
3.10245,0.09585274
3.105226,0.09343177
3.108007,0.09311476
3.110792,0.09267106
3.113583,0.0921426
3.116378,0.09336203
3.119179,0.09189381
3.121985,0.09214312
3.124795,0.09204396
3.127611,0.09206001
3.130431,0.09040602
3.133257,0.09137417
3.136088,0.09035568
3.138924,0.09057771
3.141765,0.08993955
3.144611,0.0904736
3.147462,0.09012825
3.150319,0.09087709
3.15318,0.09028382
3.156047,0.09131099
3.158919,0.09031209
3.161796,0.09093279
3.164678,0.09006863
3.167566,0.09070117
3.170458,0.08985024
3.173356,0.09089893
3.17626,0.08953897
3.179168,0.09079217
3.182082,0.09339677
3.185001,0.0905018
3.187926,0.08959307
3.190856,0.08963265
3.193791,0.09138639
3.196731,0.09119107
3.199677,0.08902318
3.202629,0.08986058
3.205585,0.09005845
3.208548,0.08878172
3.211515,0.08905827
3.214488,0.09431029
3.217467,0.09472493
3.220451,0.09269363
3.223441,0.08866682
3.226436,0.09190045
3.229437,0.08845781
3.232443,0.08834663
3.235455,0.08844038
3.238472,0.08836571
3.241495,0.08630033
3.244523,0.08884979
3.247558,0.08779261
3.250598,0.08935636
3.253643,0.08944513
3.256694,0.09010917
3.259751,0.08920121
3.262814,0.08526102
3.265882,0.08360671
3.268956,0.08600553
3.272036,0.08478503
3.275122,0.08253073
3.278213,0.08189902
3.28131,0.08212124
3.284413,0.08132272
3.287522,0.08159184
3.290637,0.07983562
3.293757,0.08063215
3.296884,0.08318192
3.300016,0.07908101
3.303155,0.07704937
3.306299,0.0790086
3.309449,0.07595255
3.312605,0.07504023
3.315767,0.07457835
3.318936,0.07371644
3.32211,0.07325259
3.32529,0.07393653
3.328476,0.07602148
3.331669,0.07485606
3.334867,0.0681462
3.338072,0.06805514
3.341282,0.06602773
3.344499,0.06677782
3.347722,0.06557048
3.350952,0.06482954
3.354187,0.06285726
3.357429,0.05817969
3.360677,0.05624302
3.363931,0.05631896
3.367191,0.05605931
3.370458,0.05375844
3.373731,0.0538344
3.37701,0.05213141
3.380296,0.0522662
3.383588,0.05343461
3.386886,0.05511225
3.390191,0.05562387
3.393502,0.05687151
3.39682,0.06030363
3.400144,0.0610981
3.403475,0.06344886
3.406812,0.06841908
3.410156,0.06692835
3.413506,0.06701853
3.416862,0.06890934
3.420226,0.06986442
3.423596,0.07420589
3.426972,0.07505532
3.430355,0.07459991
3.433745,0.07710315
3.437141,0.07881454
3.440545,0.08331378
3.443954,0.08690866
3.447371,0.08456371
3.450794,0.0831561
3.454224,0.08540787
3.457661,0.08548776
3.461105,0.08573679
3.464556,0.0863929
3.468013,0.08499671
3.471477,0.08383696
3.474948,0.08364727
3.478426,0.08254432
3.481911,0.08272371
3.485403,0.08197293
3.488902,0.08325724
3.492408,0.08675369
3.495921,0.08102364
3.499441,0.07886451
3.502968,0.07533997
3.506502,0.07320557
3.510043,0.07547712
3.513592,0.08219177
3.517147,0.09365094
3.52071,0.10587666
3.52428,0.11733375
3.527857,0.12464079
3.531441,0.13371767
3.535032,0.14348354
3.538631,0.14660105
3.542237,0.15055145
3.545851,0.15409752
3.549471,0.15771377
3.553099,0.16174033
3.556735,0.16518385
3.560378,0.16781624
3.564028,0.17054522
3.567686,0.17325983
3.571351,0.17629322
3.575024,0.17725399
3.578704,0.17790241
3.582392,0.17959259
3.586088,0.18350742
3.589791,0.18607393
3.593501,0.18890411
3.59722,0.19430607
3.600946,0.19587744
3.604679,0.19689501
3.608421,0.19949351
3.61217,0.20198209
3.615926,0.20602653
3.619691,0.20845084
3.623463,0.20998446
3.627244,0.21270884
3.631032,0.21404177
3.634828,0.21734711
3.638632,0.21924421
3.642444,0.22236681
3.646263,0.2242834
3.650091,0.22810813
3.653927,0.23039372
3.657771,0.2322185
3.661623,0.23463922
3.665483,0.23701681
3.669351,0.23954375
3.673227,0.24232648
3.677111,0.24479002
3.681004,0.24846383
3.684905,0.25051456
3.688814,0.2527336
3.692731,0.25489276
3.696656,0.25795474
3.70059,0.25997533
3.704532,0.26317132
3.708483,0.26541083
3.712442,0.26822939
3.716409,0.27028164
3.720385,0.27324737
3.72437,0.27552676
3.728362,0.27828986
3.732364,0.28028369
3.736374,0.28269005
3.740392,0.28486105
3.744419,0.28853796
3.748455,0.28944326
3.752499,0.29216658
3.756553,0.29329059
3.760614,0.2949364
3.764685,0.29619933
3.768764,0.29813372
3.772853,0.29940428
3.77695,0.30120251
3.781056,0.30136876
3.78517,0.30292255
3.789294,0.30273519
3.793427,0.30299897
3.797568,0.301722
3.801719,0.29999345
3.805879,0.29753304
3.810048,0.29189807
3.814225,0.28226905
3.818412,0.27037166
3.822609,0.25548894
3.826814,0.24075248
3.831029,0.22795883
3.835252,0.22132659
3.839486,0.2173307
3.843728,0.21626122
3.84798,0.21507571
3.852241,0.21300514
3.856512,0.2077877
3.860792,0.20390324
3.865081,0.20206649
3.86938,0.20302996
3.873689,0.20477466
3.878007,0.20734556
3.882334,0.2086121
3.886672,0.21084574
3.891019,0.21353029
3.895375,0.21604826
3.899742,0.21954353
3.904118,0.22458238
3.908504,0.23058537
3.9129,0.23485053
3.917305,0.23241567
3.921721,0.22436809
3.926146,0.21195123
3.930581,0.20219164
3.935027,0.19427617
3.939482,0.19207555
3.943948,0.1900807
3.948423,0.18639731
3.952909,0.18044851
3.957405,0.17407586
3.961911,0.16625878
3.966427,0.1600482
3.970954,0.15289774
3.975491,0.1460135
3.980038,0.13982011
3.984595,0.13500066
3.989163,0.13356524
3.993742,0.13782068
3.99833,0.140062
4.00293,0.1374506
4.00754,0.13031029
4.01216,0.12844945
4.016791,0.13039247
4.021433,0.14118487
4.026086,0.16346065
4.030749,0.19625837
4.035423,0.22257943
4.040108,0.23870743
4.044804,0.24677543
4.04951,0.25180464
4.054228,0.25722754
4.058956,0.26928807
4.063695,0.28400788
4.068446,0.30584214
4.073207,0.32662553
4.07798,0.34344129
4.082764,0.35536908
4.087559,0.36572184
4.092365,0.37326723
4.097183,0.38004447
4.102012,0.38548994
4.106852,0.39074425
4.111703,0.39586585
4.116566,0.40054542
4.121441,0.40473397
4.126327,0.40867136
4.131224,0.41211874
4.136133,0.4151995
4.141054,0.41811118
4.145987,0.42167393
4.150931,0.42308135
4.155887,0.42604617
4.160854,0.42798723
4.165834,0.43002621
4.170826,0.43174763
4.175829,0.43465097
4.180844,0.43494484
4.185872,0.43617947
4.190911,0.43828456
4.195963,0.44052074
4.201026,0.44354099
4.206102,0.44752195
4.21119,0.45355725
4.216291,0.45944772
4.221404,0.46369792
4.226529,0.46773588
4.231666,0.47187105
4.236816,0.47471938
4.241979,0.47523144
4.247154,0.47434197
4.252341,0.47181866
4.257542,0.46335081
4.262754,0.4700697
4.26798,0.47954895
4.273219,0.47899206
4.27847,0.48042678
4.283734,0.481476
4.289011,0.48317817
4.294301,0.48406063
4.299604,0.48350495
4.30492,0.48449377
4.31025,0.48534955
4.315592,0.48348119
4.320948,0.48371273
4.326317,0.48248629
4.331699,0.48261489
4.337095,0.48350896
4.342504,0.48356279
4.347926,0.48343168
4.353362,0.48536451
4.358811,0.48600411
4.364275,0.48816591
4.369751,0.48879102
4.375242,0.49018374
4.380746,0.49216052
4.386264,0.49424645
4.391796,0.49524796
4.397342,0.49715807
4.402902,0.49878525
4.408476,0.49979165
4.414064,0.50193904
4.419666,0.5035925
4.425282,0.50483587
4.430913,0.50644418
4.436558,0.50853096
4.442217,0.51004607
4.447891,0.50984237
4.453579,0.51137868
4.459281,0.51192341
4.464998,0.5137089
4.47073,0.51258704
4.476477,0.51385139
4.482238,0.51386725
4.488014,0.51658742
4.493805,0.51728783
4.499611,0.51853064
4.505431,0.51997387
4.511267,0.52106401
4.517118,0.52262531
4.522984,0.52484945
4.528865,0.52638036
4.534762,0.52922439
4.540674,0.5309965
4.546601,0.53330773
4.552543,0.53542159
4.558502,0.53781039
4.564475,0.5411955
4.570465,0.54321392
4.57647,0.54712284
4.582491,0.54909177
4.588527,0.55108219
4.59458,0.55381886
4.600648,0.55403675
4.606732,0.55540536
4.612833,0.55640634
4.618949,0.55700726
4.625082,0.55877318
4.631231,0.55888668
4.637397,0.55992373
4.643578,0.56014521
4.649777,0.55961428
4.655991,0.56001278
4.662223,0.5594848
4.668471,0.5590379
4.674735,0.55913993
4.681017,0.5585166
4.687315,0.55764057
4.69363,0.55904326
4.699962,0.56096477
4.706312,0.56101546
4.712678,0.56168598
4.719062,0.5636525
4.725463,0.56406519
4.731881,0.56838123
4.738316,0.57620922
4.744769,0.58685893
4.75124,0.5978307
4.757728,0.60796205
4.764234,0.614624
4.770758,0.61990014
4.777299,0.6225196
4.783859,0.62636334
4.790436,0.63182406
4.797032,0.63356989
4.803645,0.63717513
4.810277,0.63934061
4.816927,0.64317202
4.823596,0.64780897
4.830283,0.64613755
4.836988,0.65023787
4.843712,0.6533358
4.850455,0.65321306
4.857216,0.65650626
4.863996,0.65774361
4.870795,0.66089319
4.877613,0.66238559
4.884451,0.66094547
4.891307,0.66359311
4.898182,0.66576371
4.905077,0.66686776
4.911991,0.66753378
4.918925,0.66945636
4.925878,0.67115329
4.932851,0.67273586
4.939844,0.67415591
4.946856,0.67485681
4.953888,0.6781805
4.960941,0.68021607
4.968013,0.67875278
4.975105,0.68102418
4.982218,0.68140082
4.989351,0.68304545
4.996504,0.68365158
5.003678,0.68551243
5.010872,0.68494223
5.018087,0.69059416
5.025323,0.69024301
5.03258,0.68872399
5.039857,0.68899071
5.047156,0.68929741
5.054475,0.68989235
5.061816,0.69084893
5.069179,0.69113747
5.076562,0.69259225
5.083967,0.69724241
5.091394,0.69311113
5.098842,0.69336016
5.106312,0.69397024
5.113804,0.69608594
5.121318,0.69836522
5.128854,0.7017863
5.136412,0.70226183
5.143992,0.70925862
5.151595,0.71003169
5.15922,0.70478183
5.166868,0.70829131
5.174538,0.70752662
5.182231,0.71030848
5.189947,0.70903933
5.197686,0.71661625
5.205448,0.71517528
5.213233,0.72171119
5.221041,0.71504959
5.228873,0.7145439
5.236728,0.71963026
5.244607,0.71652421
5.25251,0.71758802
5.260436,0.71726938
5.268386,0.71881526
5.27636,0.72187714
5.284358,0.72087538
5.292381,0.72762564
5.300428,0.72082024
5.308499,0.72179246
5.316595,0.72166813
5.324715,0.72240288
5.33286,0.72229612
5.341031,0.72345363
5.349226,0.74138182
5.357446,0.73009553
5.365692,0.72302163
5.373962,0.72534649
5.382259,0.72366306
5.390581,0.72336437
5.398928,0.72353718
5.407302,0.72540493
5.415701,0.73478613
5.424127,0.74471528
5.432579,0.71850068
5.441057,0.72802082
5.449561,0.71801222
5.458092,0.73250458
5.46665,0.73332527
5.475234,0.72897951
5.483846,0.72428851
5.492484,0.70704599
5.50115,0.71216536
5.509843,0.69988604
5.518564,0.7060071
5.527312,0.69508179
5.536087,0.67848777
5.544891,0.68189766
5.553723,0.66722977
5.562582,0.64279179
5.57147,0.64181933
5.580387,0.69545674
5.589332,0.76416846
5.598305,0.76734837
5.607307,0.75493599
5.616339,0.74979828
5.625399,0.7254756
5.634489,0.73674329
5.643607,0.74756483
5.652756,0.72953309
5.661934,0.72325617
5.671142,0.73770008
5.680379,0.73538938
5.689647,0.73375303
5.698945,0.73349956
5.708274,0.75103466
5.717633,0.75764033
5.727022,0.73528439
5.736443,0.74992705
5.745894,0.74798102
5.755377,0.74892368
5.76489,0.78347867
5.774436,0.75540099
5.784012,0.73669436
5.793621,0.74478685
5.803262,0.73837404
5.812934,0.76437211
5.822639,0.78913362
5.832376,0.7601575
5.842146,0.7401664
5.851948,0.75901629
5.861783,0.76782995
5.871652,0.77802901
5.881553,0.80999833
5.891488,0.78628188
5.901457,0.77348615
5.911459,0.75605615
5.921495,0.77147929
5.931565,0.79929122
5.94167,0.80687848
5.951809,0.75381114
5.961982,0.7965821
5.97219,0.7728489
5.982433,0.79934241
5.992711,0.78460339
6.003025,0.77280068
6.013374,0.78863152
6.023759,0.7712657
6.034179,0.77846158
6.044636,0.87046579
6.055129,0.78814452
6.065658,0.81874252
6.076224,0.8033749
6.086826,0.78269845
6.097466,0.7901905
6.108143,0.83391717
6.118857,0.8026483
6.129609,0.78871448
6.140398,0.80502388
6.151226,0.80679759
6.162091,0.8105685
6.172996,0.80056176
6.183938,0.8340371
6.19492,0.79155289
6.20594,0.80836548
6.217,0.80123433
6.228099,0.80540576
6.239237,0.80283268
6.250416,0.80477443
6.261635,0.80581271
6.272893,0.80900216
6.284193,0.80759426
6.295533,0.81052939
6.306914,0.81027602
6.318336,0.81135112
6.329799,0.81725113
6.341304,0.85014977
6.352851,0.81474778
6.36444,0.84331204
6.376071,0.82932312
6.387745,0.82809017
6.399461,0.84444534
6.411221,0.90596552
6.423023,0.84696603
6.434869,0.85016532
6.446759,0.84156567
6.458693,0.85044475
6.470671,0.86008062
6.482693,0.89812434
6.49476,0.8750616
6.506872,0.8575176
6.519029,0.87227294
6.531231,0.85418224
6.54348,0.87129465
6.555774,0.87395133
6.568114,0.88823856
6.580501,0.8778628
6.592934,0.87864269
6.605415,0.86737517
6.617943,0.88073947
6.630518,0.91441633
6.643141,0.87370939
6.655812,0.86427036
6.668532,0.88474114
6.6813,0.87604915
6.694117,0.86865177
6.706983,0.89234248
6.719899,0.87701248
6.732864,0.87212618
6.745879,0.8709412
6.758945,0.8767591
6.772062,0.88696808
6.785229,0.90099679
6.798448,0.87506425
6.811718,0.8818648
6.825039,0.88767174
6.838413,0.87690599
6.85184,0.91435005
6.865319,0.8989408
6.878851,0.8793614
6.892437,0.88887016
6.906076,0.88574439
6.919769,0.88340631
6.933517,0.88082077
6.947319,0.89911676
6.961176,0.8971245
6.975089,0.88699354
6.989057,0.89648081
7.003081,0.88889143
7.017161,0.89576367
7.031298,0.89964402
7.045492,0.9108112
7.059743,0.88859035
7.074052,0.89825038
7.088419,0.89151949
7.102845,0.90252592
7.117329,0.89716601
7.131872,0.90241343
7.146475,0.90588844
7.161137,0.91055721
7.17586,0.90068382
7.190643,0.90613448
7.205487,0.91058182
7.220393,0.90315893
7.23536,0.90882678
7.25039,0.9082059
7.265481,0.91667923
7.280636,0.91266925
7.295854,0.91384231
7.311135,0.91336338
7.326481,0.92113098
7.341891,0.91991468
7.357366,0.91684589
7.372906,0.91958227
7.388512,0.91869058
7.404184,0.92107743
7.419922,0.92129291
7.435728,0.92276567
7.451601,0.92876496
7.467541,0.92926707
7.48355,0.92584041
7.499628,0.92789429
7.515774,0.92743709
7.53199,0.92982536
7.548277,0.92991443
7.564633,0.93310193
7.581061,0.93263002
7.59756,0.93428683
7.614131,0.93429279
7.630774,0.93550266
7.647491,0.9350623
7.66428,0.93652926
7.681143,0.93627443
7.69808,0.93830566
7.715093,0.9380579
7.73218,0.93938078
7.749343,0.94023002
7.766583,0.94150362
7.783899,0.94177027
7.801292,0.94304841
7.818764,0.94343796
7.836313,0.94489166
7.853942,0.94591222
7.871649,0.94789762
7.889437,0.94771155
7.907305,0.95015376
7.925254,0.95057964
7.943285,0.95156667
7.961398,0.952417
7.979594,0.95343278
7.997872,0.95317639
8.016235,0.95501084
8.034682,0.95510821
8.053214,0.95677556
8.071832,0.95673304
8.090535,0.9579423
8.109326,0.95808549
8.128204,0.95914967
8.147169,0.95946173
8.166224,0.96084988
8.185368,0.9605801
8.204601,0.96164563
8.223925,0.96192172
8.24334,0.96343406
8.262847,0.96330539
8.282446,0.96512858
8.302139,0.96474203
8.321925,0.96658388
8.341805,0.96605222
8.361781,0.96755327
8.381852,0.96792079
8.40202,0.96903281
8.422285,0.96937715
8.442648,0.97059213
8.463109,0.97041271
8.48367,0.97180329
8.504331,0.9717542
8.525092,0.97251906
8.545955,0.97271726
8.566921,0.97385538
8.587989,0.97375063
8.609161,0.97476267
8.630437,0.9744575
8.651819,0.97583851
8.673307,0.97574536
8.694902,0.97723115
8.716604,0.97654959
8.738415,0.97808638
8.760335,0.97762563
8.782365,0.97937963
8.804507,0.97874728
8.82676,0.98005697
8.849125,0.98015149
8.871604,0.98129372
8.894198,0.98148604
8.916907,0.98283215
8.939732,0.98212326
8.962673,0.9834768
8.985733,0.98313559
9.008912,0.98416404
9.03221,0.9832149
9.055629,0.98448278
9.07917,0.98310095
9.102833,0.98389851
9.12662,0.98327704
9.150531,0.98395755
9.174568,0.98333051
9.198731,0.98397747
9.223022,0.98239415
9.247441,0.98263705
9.27199,0.98215894
9.296669,0.98333551
9.32148,0.98189659
9.346423,0.98288983
9.3715,0.98301345
9.396712,0.98422722
9.42206,0.98345528
9.447545,0.98462253
9.473167,0.98431422
9.498929,0.98579144
9.524832,0.98504508
9.550876,0.98599612
9.577062,0.9855358
9.603393,0.98670182
9.629868,0.98595519
9.65649,0.98709445
9.683259,0.98628081
9.710176,0.98749899
9.737244,0.98639452
9.764463,0.98743284
9.791834,0.98650021
9.819359,0.98714202
9.847039,0.98668264
9.874875,0.98736955
9.902869,0.98648353
9.931022,0.98791206
9.959336,0.98690098
9.987811,0.98810745
10.016449,0.9875941
10.045252,0.98820672
10.074221,0.9874891
10.103357,0.98893042
10.132662,0.98841849
10.162137,0.9894496
10.191784,0.98902429
10.221604,0.9899426
10.2516,0.98962879
10.281771,0.99080457
10.312121,0.99040879
10.34265,0.99132182
10.37336,0.99018591
10.404253,0.99164353
10.435331,0.99066025
10.466594,0.99176195
10.498045,0.99099751
10.529686,0.99185626
10.561517,0.99073023
10.593542,0.99185526
10.625761,0.99098772
10.658176,0.99156527
10.69079,0.99098473
10.723604,0.99174772
10.756619,0.99054097
10.789839,0.99187999
10.823264,0.99051943
10.856896,0.99124644
10.890738,0.9904707
10.924791,0.99162547
10.959058,0.99006684
10.993541,0.99135402
11.02824,0.99039965
11.06316,0.99159735
11.098301,0.9908696
11.133665,0.99246121
11.169256,0.99159261
11.205075,0.99232719
11.241124,0.99090926
11.277405,0.99230654
11.313921,0.99187364
11.350675,0.9931049
11.387667,0.99152708
11.424901,0.99245071
11.46238,0.99189016
11.500105,0.9930745
11.538079,0.99172714
11.576304,0.99355218
11.614783,0.99236554
11.653518,0.9935149
11.692513,0.99226351
11.731769,0.99460256
11.77129,0.99356925
11.811077,0.99523653
11.851134,0.99402632
11.891464,0.9960815
11.932068,0.99471123
11.972951,0.99672206
12.014114,0.99575267
12.055562,0.99744152
12.097296,0.99615571
12.13932,0.997657
12.181636,0.99632188
12.224249,0.9978171
12.26716,0.99651425
12.310373,0.9979143
12.353892,0.99642527
12.397719,0.99856781
12.441859,0.99649169
12.486313,0.99766432
12.531086,0.99587388
12.57618,0.99834018
12.621601,0.99615174
12.66735,0.99776013
12.713432,0.99607471
12.75985,0.99778689
12.806608,0.99669694
12.85371,0.99882717
12.901159,0.9963344
12.94896,0.9988799
12.997116,0.99687726
13.045631,0.99922078
13.09451,0.99655218
13.143756,0.0100050888
13.193373,0.99756267
13.243366,0.99907437
13.29374,0.99811367
13.344497,0.010002109
13.395644,0.99850492
13.447183,0.0100129251
13.499121,0.99828422
13.551461,0.0100137858
13.604208,0.9984815
13.657367,0.0100137663
13.710943,0.99879099
13.764941,0.0100154151
13.819365,0.99824066
13.874221,0.01000736
13.929515,0.99822767
13.98525,0.0100051272
14.041433,0.99701406
14.098068,0.0100008619
14.155163,0.9971867
14.212721,0.0100071054
14.270749,0.99736608
14.329252,0.0100108587
14.388237,0.99573051
14.447709,0.0100151814
14.507674,0.99760196
14.568139,0.0100170858
14.629109,0.99748213
14.690592,0.0100205627
14.752594,0.99780557
14.815121,0.0100392765
14.878179,0.99844405
14.941777,0.99235157
15.00592,0.99788044
15.070616,0.0100683656
15.135871,0.99691326
15.201695,0.0101210196
15.268092,0.99458793
15.335072,0.0101580392
15.402642,0.99010733
15.47081,0.0102055246
15.539583,0.97903003
15.60897,0.0100973817
15.678979,0.95282535
15.749619,0.99466597
15.820897,0.91054605
15.892824,0.93733498
15.965407,0.82892218
