Database of Origin,University of Winnipeg Spectrophotometer Facility
Sample Description,16.11. Meteorites - HEDs 16.11.3. NASA samples (4) Bruker Vertex 70 FTIR spectrometer
Other Information,MIR Glowbar KBr Beam Splitter MCT cryo cooled Dectect.
Date Added,2018-07-23 23:49:06.395309

Data ID,FTIR_MET2_6_57      
Sample ID,NWA 1836
Mineral Name,Cumulate Eucrite
Grain Size,250-500 um
Viewing Geometry,i30/ e0
Resolution,7.71cm-1

Wavelength
1672.316177,0.12868
1674.476792,0.12821
1676.642997,0.12744
1678.814814,0.12655
1680.992268,0.12552
1683.175374,0.12465
1685.364158,0.12421
1687.558643,0.12356
1689.758849,0.12257
1691.9648,0.12255
1694.176519,0.12283
1696.394027,0.12193
1698.61735,0.12076
1700.846507,0.11987
1703.081521,0.11899
1705.322418,0.11815
1707.569219,0.11771
1709.821949,0.11766
1712.08063,0.1172
1714.345286,0.11638
1716.615945,0.11566
1718.892624,0.115
1721.175349,0.1143
1723.464146,0.11376
1725.759038,0.11362
1728.060049,0.11317
1730.367205,0.11193
1732.68053,0.11072
1735.000051,0.11024
1737.325788,0.11015
1739.657769,0.11014
1741.996018,0.11021
1744.340562,0.10982
1746.691425,0.10906
1749.048633,0.10826
1751.412211,0.10734
1753.78219,0.1068
1756.158588,0.10628
1758.541435,0.10495
1760.930758,0.10351
1763.326581,0.10279
1765.728933,0.10276
1768.13784,0.10291
1770.553328,0.10245
1772.975429,0.1018
1775.404162,0.10156
1777.839558,0.10146
1780.281645,0.10111
1782.73045,0.10037
1785.186001,0.09904
1787.648326,0.09759
1790.117454,0.09712
1792.593414,0.09708
1795.07623,0.09679
1797.565933,0.09666
1800.062552,0.09647
1802.566116,0.09598
1805.076653,0.0953
1807.594193,0.09447
1810.118766,0.09377
1812.650403,0.09379
1815.189129,0.09412
1817.734976,0.09368
1820.287974,0.09261
1822.848154,0.09193
1825.415545,0.09163
1827.990179,0.09122
1830.572085,0.09075
1833.161299,0.09011
1835.757844,0.08951
1838.361756,0.08917
1840.973065,0.08845
1843.591803,0.08762
1846.218001,0.08726
1848.851693,0.08703
1851.492909,0.08673
1854.141686,0.08649
1856.798049,0.08596
1859.462034,0.0854
1862.133675,0.08531
1864.813003,0.08469
1867.500053,0.08403
1870.194858,0.08411
1872.897451,0.08418
1875.60787,0.08398
1878.326142,0.08349
1881.052305,0.08274
1883.786392,0.08201
1886.528439,0.08132
1889.27848,0.08036
1892.03655,0.07974
1894.802685,0.07989
1897.576923,0.08005
1900.359294,0.07991
1903.149835,0.07958
1905.948585,0.07948
1908.755578,0.07937
1911.570851,0.07856
1914.394441,0.07779
1917.226385,0.07749
1920.066724,0.07735
1922.915487,0.0774
1925.772716,0.07719
1928.638449,0.07669
1931.512723,0.07633
1934.395578,0.0762
1937.28705,0.07596
1940.18718,0.07552
1943.09601,0.07506
1946.013571,0.07451
1948.939907,0.07441
1951.875057,0.07436
1954.819061,0.07386
1957.771959,0.07356
1960.733792,0.07365
1963.7046,0.07375
1966.684429,0.07365
1969.67331,0.07332
1972.671291,0.07278
1975.678411,0.07252
1978.694713,0.07245
1981.72024,0.0721
1984.755033,0.07177
1987.799135,0.0717
1990.852594,0.07171
1993.915443,0.07157
1996.987732,0.07127
2000.069502,0.07081
2003.160799,0.07035
2006.261667,0.0702
2009.37215,0.07006
2012.492292,0.06981
2015.622144,0.06991
2018.761742,0.07
2021.911136,0.06996
2025.070371,0.06998
2028.239495,0.06974
2031.418553,0.06943
2034.607593,0.06945
2037.806661,0.06957
2041.015809,0.06935
2044.235076,0.06901
2047.464515,0.06903
2050.704173,0.06918
2053.9541,0.0692
2057.214344,0.06916
2060.484955,0.06897
2063.765981,0.06879
2067.057478,0.06861
2070.359486,0.06857
2073.672061,0.06869
2076.995253,0.06854
2080.329113,0.0685
2083.673693,0.06877
2087.029044,0.06886
2090.39522,0.06887
2093.772276,0.06901
2097.160256,0.06915
2100.559219,0.0691
2103.969217,0.06898
2107.390304,0.06885
2110.822536,0.06884
2114.265965,0.06907
2117.720647,0.06917
2121.186643,0.06911
2124.663997,0.06909
2128.152772,0.06907
2131.653022,0.06901
2135.164806,0.06909
2138.68818,0.06936
2142.223201,0.06963
2145.769927,0.0697
2149.328422,0.0698
2152.898735,0.06993
2156.480928,0.07006
2160.075063,0.07048
2163.681197,0.07127
2167.299393,0.07174
2170.929709,0.07149
2174.572208,0.07128
2178.226956,0.07149
2181.894004,0.07192
2185.57342,0.07217
2189.265266,0.07236
2192.969606,0.07268
2196.686503,0.07298
2200.416021,0.07328
2204.158225,0.07353
2207.913183,0.07364
2211.680953,0.07365
2215.461603,0.07378
2219.255201,0.07417
2223.061813,0.07458
2226.881507,0.07485
2230.714349,0.07527
2234.560407,0.07585
2238.419756,0.07608
2242.292454,0.07607
2246.178575,0.07651
2250.07819,0.07726
2253.991369,0.07767
2257.918183,0.07775
2261.858702,0.07792
2265.813,0.07823
2269.781154,0.07837
2273.763225,0.07855
2277.759293,0.0792
2281.769432,0.07994
2285.793716,0.08044
2289.832221,0.08099
2293.88502,0.08154
2297.952192,0.08195
2302.033816,0.0824
2306.129961,0.08305
2310.240709,0.08372
2314.366139,0.08412
2318.506328,0.08421
2322.661356,0.08442
2326.831304,0.08507
2331.016252,0.08582
2335.216286,0.08633
2339.431477,0.08694
2343.661913,0.08773
2347.907677,0.08834
2352.168852,0.0887
2356.445521,0.08907
2360.737771,0.0898
2365.045686,0.09087
2369.369358,0.09186
2373.708861,0.0926
2378.06429,0.09304
2382.435731,0.09326
2386.823273,0.09355
2391.227005,0.09408
2395.647017,0.09496
2400.0834,0.09613
2404.53625,0.09718
2409.005647,0.09795
2413.491691,0.09848
2417.994473,0.09875
2422.514088,0.09911
2427.050631,0.09988
2431.604196,0.10089
2436.17488,0.10182
2440.762785,0.10256
2445.367997,0.10336
2449.99062,0.10428
2454.630753,0.10513
2459.288496,0.10602
2463.963948,0.10688
2468.657212,0.10752
2473.368389,0.10821
2478.097588,0.10917
2482.844901,0.1101
2487.610438,0.11075
2492.394303,0.11114
2497.196603,0.11168
2502.017445,0.11264
2506.856937,0.11378
2511.715186,0.11468
2516.592308,0.11519
2521.488402,0.11553
2526.403583,0.11601
2531.337964,0.11695
2536.291658,0.1181
2541.264778,0.11882
2546.257439,0.11921
2551.269756,0.11981
2556.301852,0.12056
2561.353831,0.12116
2566.425818,0.12181
2571.517932,0.12283
2576.630293,0.12409
2581.763021,0.12484
2586.91624,0.12519
2592.090072,0.12564
2597.284647,0.12618
2602.500077,0.12645
2607.736495,0.12688
2612.994027,0.12752
2618.272802,0.12814
2623.572949,0.12859
2628.894597,0.12917
2634.237878,0.13033
2639.60293,0.13101
2644.989874,0.13142
2650.398851,0.13194
2655.829995,0.1323
2661.283444,0.13242
2666.759335,0.13274
2672.257807,0.1335
2677.779,0.13384
2683.323062,0.13399
2688.890121,0.1344
2694.480328,0.13473
2700.093828,0.13457
2705.730766,0.1341
2711.39129,0.13375
2717.075548,0.13313
2722.783689,0.132
2728.515871,0.13088
2734.272233,0.12982
2740.052934,0.12895
2745.85813,0.12823
2751.687977,0.12682
2757.542631,0.12473
2763.422252,0.12322
2769.327,0.12243
2775.257043,0.12176
2781.212529,0.12101
2787.19363,0.11988
2793.200512,0.11843
2799.233341,0.11701
2805.292287,0.11565
2811.377519,0.11456
2817.489208,0.11344
2823.627536,0.11241
2829.79266,0.11169
2835.984766,0.11084
2842.20403,0.10973
2848.450631,0.10852
2854.72475,0.10741
2861.02657,0.1065
2867.356274,0.10525
2873.714055,0.10391
2880.100086,0.10315
2886.514561,0.10236
2892.957673,0.10123
2899.429613,0.10037
2905.930575,0.09994
2912.460755,0.09958
2919.020351,0.09887
2925.609569,0.0978
2932.228594,0.09679
2938.877637,0.09607
2945.556904,0.09569
2952.266599,0.09547
2959.006933,0.09511
2965.778115,0.09474
2972.580357,0.09431
2979.413883,0.09377
2986.278891,0.09322
2993.175608,0.09287
3000.104254,0.0928
3007.065051,0.09282
3014.058225,0.09279
3021.084,0.09272
3028.142607,0.09259
3035.234283,0.09234
3042.359245,0.09226
3049.517737,0.09249
3056.709994,0.09283
3063.936258,0.09305
3071.196769,0.09307
3078.491772,0.09308
3085.821513,0.0934
3093.186251,0.09385
3100.586217,0.09404
3108.021674,0.09423
3115.492879,0.09462
3123.000089,0.09497
3130.543567,0.09527
3138.123574,0.09578
3145.740377,0.09657
3153.394256,0.09741
3161.08546,0.09807
3168.814274,0.09843
3176.580974,0.09889
3184.38584,0.09946
3192.229154,0.09984
3200.1112,0.10028
3208.032266,0.10072
3215.992653,0.10115
3223.992633,0.10184
3232.032514,0.1022
3240.112594,0.10208
3248.233176,0.10237
3256.394564,0.10301
3264.597068,0.10356
3272.840999,0.10406
3281.126681,0.10441
3289.454413,0.10457
3297.824524,0.10457
3306.237341,0.10454
3314.693189,0.1046
3323.192401,0.10459
3331.735311,0.10413
3340.322256,0.1033
3348.95359,0.10251
3357.629634,0.10172
3366.350748,0.10063
3375.117285,0.09946
3383.929601,0.09857
3392.788054,0.09761
3401.693008,0.09615
3410.64483,0.0949
3419.643903,0.09502
3428.690579,0.09635
3437.785247,0.09775
3446.928291,0.09854
3456.120099,0.0989
3465.36106,0.09909
3474.651571,0.0989
3483.99203,0.09824
3493.382855,0.09771
3502.824429,0.09812
3512.317177,0.09944
3521.861515,0.10069
3531.457866,0.10134
3541.106657,0.10155
3550.808317,0.10154
3560.563284,0.10165
3570.372009,0.10188
3580.234914,0.10196
3590.15246,0.10186
3600.125104,0.1018
3610.153306,0.10183
3620.237532,0.10177
3630.378252,0.10168
3640.575942,0.10169
3650.831097,0.10162
3661.144177,0.10153
3671.515689,0.10145
3681.946129,0.10109
3692.436003,0.10055
3702.985818,0.10022
3713.596091,0.10013
3724.267342,0.10009
3735.000113,0.10004
3745.79491,0.09993
3756.652285,0.09979
3767.572784,0.09953
3778.556959,0.09922
3789.605369,0.09912
3800.71858,0.09914
3811.897162,0.09906
3823.141709,0.09873
3834.452778,0.09812
3845.830974,0.09744
3857.276898,0.09703
3868.791155,0.09687
3880.37436,0.09681
3892.027134,0.09679
3903.750106,0.0966
3915.543926,0.09619
3927.409209,0.09546
3939.346621,0.09462
3951.356822,0.09404
3963.44048,0.09363
3975.598271,0.09346
3987.830879,0.09358
4000.138997,0.09367
4012.523342,0.09383
4024.984593,0.09405
4037.523484,0.09406
4050.140742,0.09387
4062.837106,0.0937
4075.613322,0.0937
4088.470144,0.09371
4101.408338,0.09346
4114.428697,0.093
4127.531971,0.09251
4140.718972,0.09209
4153.990505,0.09178
4167.347385,0.09158
4180.790439,0.09137
4194.320503,0.09126
4207.938425,0.09166
4221.64508,0.09292
4235.441304,0.09362
4249.327994,0.09267
4263.306045,0.09146
4277.376359,0.08994
4291.539855,0.08898
4305.79746,0.08847
4320.150116,0.08753
4334.598795,0.08657
4349.144426,0.08575
4363.788008,0.085
4378.530532,0.08429
4393.373006,0.08364
4408.316449,0.08327
4423.361896,0.08311
4438.510393,0.08294
4453.763023,0.08259
4469.120824,0.08208
4484.584908,0.0817
4500.15638,0.08151
4515.836365,0.08099
4531.626,0.08002
4547.52644,0.0791
4563.538854,0.07835
4579.664452,0.07734
4595.904394,0.07607
4612.259923,0.07481
4628.732277,0.07357
4645.322713,0.07221
4662.032504,0.07069
4678.862943,0.06911
4695.815342,0.0674
4712.891054,0.06566
4730.091384,0.06408
4747.417723,0.06241
4764.871462,0.06071
4782.45401,0.05924
4800.1668,0.05811
4818.011283,0.05702
4835.988934,0.05594
4854.101273,0.05478
4872.349771,0.05328
4890.735994,0.05164
4909.261506,0.05031
4927.927896,0.04924
4946.736778,0.04806
4965.68979,0.04673
4984.788594,0.04537
5004.034903,0.044
5023.430384,0.0429
5042.976803,0.04195
5062.675928,0.04094
5082.529556,0.04001
5102.539511,0.03928
5122.707649,0.03883
5143.03585,0.03842
5163.526056,0.03769
5184.180157,0.0368
5205.000154,0.03582
5225.988055,0.03472
5247.145898,0.03381
5268.475756,0.03323
5289.979735,0.03309
5311.659976,0.03341
5333.518684,0.03385
5355.558014,0.0345
5377.780242,0.03509
5400.187657,0.03527
5422.78258,0.03537
5445.567377,0.03568
5468.544451,0.03612
5491.716246,0.03653
5515.085278,0.03684
5538.654014,0.03693
5562.425058,0.03658
5586.401024,0.03584
5610.584574,0.03515
5634.978416,0.03462
5659.585305,0.03434
5684.408043,0.03426
5709.449517,0.03395
5734.712564,0.03333
5760.200171,0.03249
5785.915346,0.03152
5811.861151,0.03059
5838.040701,0.02968
5864.457171,0.02903
5891.11379,0.02814
5918.013883,0.027
5945.160732,0.02587
5972.557781,0.02481
6000.208507,0.02405
6028.116449,0.02356
6056.285213,0.02309
6084.718472,0.0228
6113.41997,0.02254
6142.393557,0.02211
6171.643046,0.02168
6201.172433,0.02154
6230.985758,0.02177
6261.087133,0.0219
6291.480755,0.02198
6322.1709,0.02224
6353.161929,0.02261
6384.458328,0.02304
6416.064553,0.02332
6447.985267,0.02331
6480.225188,0.02296
6512.789128,0.02229
6545.681997,0.02179
6578.908804,0.02152
6612.47466,0.02175
6646.384825,0.02198
6680.644535,0.02183
6715.259268,0.0216
6750.234571,0.02153
6785.576107,0.02143
6821.28966,0.02114
6857.381134,0.02082
6893.856559,0.02059
6930.722144,0.02059
6967.984085,0.02048
7005.648858,0.02014
7043.72303,0.01978
7082.213314,0.01952
7121.126567,0.01936
7160.469802,0.01903
7200.250183,0.01869
7240.47509,0.01844
7281.15191,0.01799
7322.288355,0.01737
7363.892259,0.01708
7405.971636,0.01688
7448.534685,0.01652
7491.589791,0.01622
7535.145539,0.01596
7579.210768,0.01555
7623.794353,0.01505
7668.905555,0.01471
7714.553795,0.01448
7760.74872,0.01433
7807.500211,0.01432
7854.818386,0.01429
7902.713612,0.01413
7951.196573,0.01412
8000.278026,0.01431
8049.969186,0.01444
8100.281485,0.0146
8151.226643,0.01506
8202.816677,0.01567
8255.063908,0.01661
8307.980976,0.01786
8361.580914,0.01901
8415.876885,0.02005
8470.882607,0.02108
8526.612089,0.02207
8583.07971,0.0228
8640.300232,0.02343
8698.288814,0.02462
8757.061026,0.02702
8816.632938,0.03066
8877.020825,0.03544
8938.241648,0.04136
9000.312761,0.04732
9063.252001,0.0517
9127.077709,0.05386
9191.808745,0.05357
9257.464511,0.05194
9324.065051,0.05046
9391.630729,0.04851
9460.182767,0.04626
9529.742923,0.04551
9600.3336,0.04627
9671.977869,0.04728
9744.699495,0.04751
9818.522964,0.04651
9893.473606,0.04467
9969.577237,0.04282
10046.86077,0.04123
10125.35186,0.04007
10205.07902,0.03984
10286.0717,0.04069
10368.36026,0.04252
10451.97605,0.0446
10536.95157,0.04597
10623.32001,0.04628
10711.11603,0.0453
10800.37531,0.04325
10891.13475,0.04155
10983.43249,0.04228
11077.30797,0.04458
11172.80199,0.04587
11269.9569,0.04542
11368.81615,0.04316
11469.42513,0.03969
11571.83069,0.0365
11676.0814,0.03386
11782.22758,0.03091
11890.32139,0.02846
12000.41694,0.02709
12112.5705,0.02585
12226.84001,0.02466
12343.28609,0.02386
12461.97152,0.02311
12582.96151,0.02226
12706.32386,0.02143
12832.12902,0.02079
12960.45029,0.02018
13091.36408,0.01957
13224.94941,0.01954
13361.28907,0.01951
13500.46914,0.01911
13642.57932,0.01936
13787.71312,0.01965
13935.96807,0.01959
14087.44596,0.01975
14242.25324,0.01929
14400.50047,0.01838
14562.30382,0.01769
14727.78452,0.0177
14897.06937,0.01816
15070.29108,0.01798
15247.58859,0.0176
15429.10747,0.01902
15615.00054,0.0217
15805.42735,0.02332
16000.55605,0.02386
16200.56297,0.0247
16405.63335,0.02677
16615.96195,0.03064
16831.75363,0.03541
17053.22403,0.03911
17280.60061,0.04087
17514.12221,0.04282
17754.04165,0.04469
18000.62552,0.04521
18254.15542,0.04575
18514.92902,0.0469
18783.26128,0.04801
19059.48566,0.04767
19343.95592,0.04823
19637.04612,0.05226
19939.15447,0.05571
20250.70371,0.05512
20572.1434,0.05267
20903.95211,0.05124
21246.63979,0.0497
21600.75039,0.04652
21966.86522,0.04129
22345.60422,0.03592
22737.6323,0.03588
23143.66139,0.03813
23564.45516,0.03722
24000.83388,0.03127
24453.67973,0.01416
24923.94272,0.01793
25412.64804,0.05461
